#S 1 spectral density
#N 2
#UFWHM 16.6615
#L  abscissas [um]  spectral density
-31.25  7.87533e+18
-31.1718  7.74059e+18
-31.0936  7.64266e+18
-31.0153  7.62592e+18
-30.9371  7.80755e+18
-30.8589  8.3381e+18
-30.7807  9.3325e+18
-30.7024  1.08296e+19
-30.6242  1.27858e+19
-30.546  1.50492e+19
-30.4678  1.73781e+19
-30.3895  1.95083e+19
-30.3113  2.1217e+19
-30.2331  2.22921e+19
-30.1549  2.26168e+19
-30.0767  2.22302e+19
-29.9984  2.11748e+19
-29.9202  1.96137e+19
-29.842  1.77145e+19
-29.7638  1.56621e+19
-29.6855  1.36048e+19
-29.6073  1.17209e+19
-29.5291  1.01016e+19
-29.4509  8.8187e+18
-29.3726  7.93406e+18
-29.2944  7.46948e+18
-29.2162  7.42682e+18
-29.138  7.77971e+18
-29.0598  8.48477e+18
-28.9815  9.48078e+18
-28.9033  1.06755e+19
-28.8251  1.19848e+19
-28.7469  1.32796e+19
-28.6686  1.44724e+19
-28.5904  1.54565e+19
-28.5122  1.61182e+19
-28.434  1.63886e+19
-28.3557  1.6227e+19
-28.2775  1.5611e+19
-28.1993  1.45651e+19
-28.1211  1.31883e+19
-28.0429  1.15553e+19
-27.9646  9.82927e+18
-27.8864  8.12661e+18
-27.8082  6.57969e+18
-27.73  5.26577e+18
-27.6517  4.22987e+18
-27.5735  3.47999e+18
-27.4953  3.01769e+18
-27.4171  2.85754e+18
-27.3389  3.06132e+18
-27.2606  3.73603e+18
-27.1824  5.03113e+18
-27.1042  7.08241e+18
-27.026  1.00025e+19
-26.9477  1.37695e+19
-26.8695  1.81842e+19
-26.7913  2.29206e+19
-26.7131  2.7441e+19
-26.6348  3.11502e+19
-26.5566  3.35101e+19
-26.4784  3.41134e+19
-26.4002  3.28198e+19
-26.322  2.98095e+19
-26.2437  2.55764e+19
-26.1655  2.08698e+19
-26.0873  1.64911e+19
-26.0091  1.321e+19
-25.9308  1.1551e+19
-25.8526  1.17042e+19
-25.7744  1.34939e+19
-25.6962  1.64122e+19
-25.6179  1.97761e+19
-25.5397  2.28695e+19
-25.4615  2.51249e+19
-25.3833  2.62191e+19
-25.3051  2.61936e+19
-25.2268  2.52865e+19
-25.1486  2.3979e+19
-25.0704  2.27065e+19
-24.9922  2.18009e+19
-24.9139  2.13906e+19
-24.8357  2.13604e+19
-24.7575  2.14105e+19
-24.6793  2.12228e+19
-24.601  2.05649e+19
-24.5228  1.94146e+19
-24.4446  1.80092e+19
-24.3664  1.68303e+19
-24.2882  1.64542e+19
-24.2099  1.74034e+19
-24.1317  1.99604e+19
-24.0535  2.40783e+19
-23.9753  2.92819e+19
-23.897  3.48026e+19
-23.8188  3.96872e+19
-23.7406  4.30313e+19
-23.6624  4.4195e+19
-23.5841  4.29419e+19
-23.5059  3.95148e+19
-23.4277  3.45259e+19
-23.3495  2.886e+19
-23.2713  2.33961e+19
-23.193  1.88601e+19
-23.1148  1.56299e+19
-23.0366  1.37248e+19
-22.9584  1.28491e+19
-22.8801  1.25493e+19
-22.8019  1.23976e+19
-22.7237  1.21332e+19
-22.6455  1.18173e+19
-22.5672  1.17723e+19
-22.489  1.24818e+19
-22.4108  1.44548e+19
-22.3326  1.79787e+19
-22.2544  2.30009e+19
-22.1761  2.90455e+19
-22.0979  3.52804e+19
-22.0197  4.06837e+19
-21.9415  4.42708e+19
-21.8632  4.52651e+19
-21.785  4.34469e+19
-21.7068  3.90129e+19
-21.6286  3.26568e+19
-21.5503  2.54259e+19
-21.4721  1.84148e+19
-21.3939  1.25792e+19
-21.3157  8.5478e+18
-21.2375  6.51625e+18
-21.1592  6.26246e+18
-21.081  7.28724e+18
-21.0028  8.96205e+18
-20.9246  1.07429e+19
-20.8463  1.22678e+19
-20.7681  1.34249e+19
-20.6899  1.43476e+19
-20.6117  1.52778e+19
-20.5334  1.64569e+19
-20.4552  1.801e+19
-20.377  1.98718e+19
-20.2988  2.18112e+19
-20.2206  2.35224e+19
-20.1423  2.46817e+19
-20.0641  2.51548e+19
-19.9859  2.49777e+19
-19.9077  2.44288e+19
-19.8294  2.39244e+19
-19.7512  2.39276e+19
-19.673  2.47754e+19
-19.5948  2.65861e+19
-19.5165  2.91726e+19
-19.4383  3.21111e+19
-19.3601  3.48127e+19
-19.2819  3.66798e+19
-19.2037  3.7275e+19
-19.1254  3.63772e+19
-19.0472  3.4162e+19
-18.969  3.0996e+19
-18.8908  2.74711e+19
-18.8125  2.41607e+19
-18.7343  2.14644e+19
-18.6561  1.96556e+19
-18.5779  1.8572e+19
-18.4997  1.79866e+19
-18.4214  1.74654e+19
-18.3432  1.66418e+19
-18.265  1.5302e+19
-18.1868  1.34425e+19
-18.1085  1.12981e+19
-18.0303  9.23641e+18
-17.9521  7.65846e+18
-17.8739  6.87744e+18
-17.7956  6.9926e+18
-17.7174  7.8974e+18
-17.6392  9.2827e+18
-17.561  1.07541e+19
-17.4828  1.19488e+19
-17.4045  1.26739e+19
-17.3263  1.29414e+19
-17.2481  1.30412e+19
-17.1699  1.33978e+19
-17.0916  1.45266e+19
-17.0134  1.68001e+19
-16.9352  2.04189e+19
-16.857  2.52756e+19
-16.7787  3.10158e+19
-16.7005  3.70861e+19
-16.6223  4.28939e+19
-16.5441  4.79297e+19
-16.4659  5.18585e+19
-16.3876  5.47091e+19
-16.3094  5.6772e+19
-16.2312  5.84915e+19
-16.153  6.0444e+19
-16.0747  6.3223e+19
-15.9965  6.72796e+19
-15.9183  7.29263e+19
-15.8401  8.02197e+19
-15.7618  8.916e+19
-15.6836  9.95757e+19
-15.6054  1.11293e+20
-15.5272  1.24008e+20
-15.449  1.37468e+20
-15.3707  1.5132e+20
-15.2925  1.64949e+20
-15.2143  1.777e+20
-15.1361  1.88786e+20
-15.0578  1.97333e+20
-14.9796  2.02521e+20
-14.9014  2.0382e+20
-14.8232  2.00923e+20
-14.7449  1.94037e+20
-14.6667  1.83899e+20
-14.5885  1.71641e+20
-14.5103  1.5848e+20
-14.4321  1.45949e+20
-14.3538  1.352e+20
-14.2756  1.2718e+20
-14.1974  1.22409e+20
-14.1192  1.21033e+20
-14.0409  1.22663e+20
-13.9627  1.26806e+20
-13.8845  1.32789e+20
-13.8063  1.40053e+20
-13.728  1.48082e+20
-13.6498  1.56574e+20
-13.5716  1.6525e+20
-13.4934  1.74019e+20
-13.4152  1.8259e+20
-13.3369  1.9084e+20
-13.2587  1.98298e+20
-13.1805  2.04831e+20
-13.1023  2.10129e+20
-13.024  2.14322e+20
-12.9458  2.17773e+20
-12.8676  2.21311e+20
-12.7894  2.25975e+20
-12.7111  2.33215e+20
-12.6329  2.444e+20
-12.5547  2.60908e+20
-12.4765  2.83671e+20
-12.3983  3.13073e+20
-12.32  3.49085e+20
-12.2418  3.90961e+20
-12.1636  4.37558e+20
-12.0854  4.87355e+20
-12.0071  5.38915e+20
-11.9289  5.90629e+20
-11.8507  6.41349e+20
-11.7725  6.90145e+20
-11.6943  7.36926e+20
-11.616  7.81842e+20
-11.5378  8.2556e+20
-11.4596  8.69034e+20
-11.3814  9.13701e+20
-11.3031  9.60908e+20
-11.2249  1.01233e+21
-11.1467  1.06939e+21
-11.0685  1.13344e+21
-10.9902  1.20564e+21
-10.912  1.287e+21
-10.8338  1.37837e+21
-10.7556  1.47991e+21
-10.6774  1.5918e+21
-10.5991  1.714e+21
-10.5209  1.84587e+21
-10.4427  1.98737e+21
-10.3645  2.13767e+21
-10.2862  2.29621e+21
-10.208  2.46248e+21
-10.1298  2.6358e+21
-10.0516  2.81579e+21
-9.97334  3.00215e+21
-9.89512  3.19449e+21
-9.8169  3.39209e+21
-9.73868  3.5948e+21
-9.66045  3.80192e+21
-9.58223  4.01278e+21
-9.50401  4.22615e+21
-9.42578  4.44128e+21
-9.34756  4.65687e+21
-9.26934  4.87172e+21
-9.19111  5.08473e+21
-9.11289  5.29472e+21
-9.03467  5.50099e+21
-8.95644  5.70355e+21
-8.87822  5.90226e+21
-8.8  6.09779e+21
-8.72178  6.29124e+21
-8.64355  6.48471e+21
-8.56533  6.67953e+21
-8.48711  6.8775e+21
-8.40888  7.08134e+21
-8.33066  7.29254e+21
-8.25244  7.51251e+21
-8.17422  7.74216e+21
-8.09599  7.98126e+21
-8.01777  8.2295e+21
-7.93955  8.48478e+21
-7.86132  8.74435e+21
-7.7831  9.00436e+21
-7.70488  9.26078e+21
-7.62665  9.50838e+21
-7.54843  9.74253e+21
-7.47021  9.95886e+21
-7.39199  1.01532e+22
-7.31376  1.03233e+22
-7.23554  1.04678e+22
-7.15732  1.05868e+22
-7.07909  1.06833e+22
-7.00087  1.07605e+22
-6.92265  1.08243e+22
-6.84442  1.08809e+22
-6.7662  1.09366e+22
-6.68798  1.09992e+22
-6.60975  1.1075e+22
-6.53153  1.11697e+22
-6.45331  1.12881e+22
-6.37509  1.14334e+22
-6.29686  1.16061e+22
-6.21864  1.1806e+22
-6.14042  1.20301e+22
-6.06219  1.22737e+22
-5.98397  1.25297e+22
-5.90575  1.279e+22
-5.82752  1.30447e+22
-5.7493  1.32833e+22
-5.67108  1.34955e+22
-5.59286  1.36722e+22
-5.51463  1.38048e+22
-5.43641  1.38886e+22
-5.35819  1.39201e+22
-5.27996  1.39003e+22
-5.20174  1.38328e+22
-5.12352  1.37241e+22
-5.0453  1.35835e+22
-4.96707  1.34216e+22
-4.88885  1.32507e+22
-4.81063  1.30827e+22
-4.7324  1.29288e+22
-4.65418  1.27987e+22
-4.57596  1.27006e+22
-4.49773  1.26403e+22
-4.41951  1.26205e+22
-4.34129  1.26418e+22
-4.26307  1.27015e+22
-4.18484  1.27944e+22
-4.10662  1.29133e+22
-4.0284  1.30485e+22
-3.95017  1.31897e+22
-3.87195  1.33253e+22
-3.79373  1.34445e+22
-3.7155  1.35371e+22
-3.63728  1.35947e+22
-3.55906  1.36117e+22
-3.48083  1.35853e+22
-3.40261  1.35158e+22
-3.32439  1.34067e+22
-3.24617  1.32636e+22
-3.16794  1.30954e+22
-3.08972  1.29113e+22
-3.0115  1.27221e+22
-2.93327  1.25374e+22
-2.85505  1.23667e+22
-2.77683  1.22185e+22
-2.6986  1.20979e+22
-2.62038  1.20097e+22
-2.54216  1.19546e+22
-2.46394  1.1932e+22
-2.38571  1.19385e+22
-2.30749  1.19687e+22
-2.22927  1.20157e+22
-2.15104  1.20711e+22
-2.07282  1.21266e+22
-1.9946  1.21734e+22
-1.91637  1.22043e+22
-1.83815  1.22134e+22
-1.75993  1.21971e+22
-1.68171  1.21543e+22
-1.60348  1.20862e+22
-1.52526  1.19968e+22
-1.44704  1.18918e+22
-1.36881  1.17789e+22
-1.29059  1.16661e+22
-1.21237  1.15617e+22
-1.13414  1.1474e+22
-1.05592  1.14091e+22
-0.977699  1.13728e+22
-0.899476  1.13682e+22
-0.821253  1.13964e+22
-0.74303  1.14563e+22
-0.664807  1.15445e+22
-0.586584  1.16554e+22
-0.508361  1.17817e+22
-0.430138  1.19146e+22
-0.351915  1.20447e+22
-0.273692  1.21622e+22
-0.195469  1.22582e+22
-0.117246  1.23253e+22
-0.039023  1.23578e+22
0.0392  1.2353e+22
0.117423  1.23111e+22
0.195646  1.22346e+22
0.273869  1.21291e+22
0.352092  1.20021e+22
0.430315  1.18626e+22
0.508538  1.17201e+22
0.586761  1.15839e+22
0.664984  1.14632e+22
0.743207  1.13647e+22
0.82143  1.12943e+22
0.899653  1.12553e+22
0.977876  1.12487e+22
1.0561  1.12736e+22
1.13432  1.13263e+22
1.21254  1.1402e+22
1.29077  1.14941e+22
1.36899  1.15941e+22
1.44721  1.16943e+22
1.52544  1.17863e+22
1.60366  1.18628e+22
1.68188  1.19179e+22
1.76011  1.19481e+22
1.83833  1.19517e+22
1.91655  1.193e+22
1.99477  1.18867e+22
2.073  1.18274e+22
2.15122  1.17597e+22
2.22944  1.16917e+22
2.30767  1.16321e+22
2.38589  1.15888e+22
2.46411  1.15689e+22
2.54234  1.15776e+22
2.62056  1.16183e+22
2.69878  1.16919e+22
2.77701  1.17969e+22
2.85523  1.19298e+22
2.93345  1.20844e+22
3.01167  1.22529e+22
3.0899  1.24261e+22
3.16812  1.25941e+22
3.24634  1.27466e+22
3.32457  1.2874e+22
3.40279  1.2968e+22
3.48101  1.30232e+22
3.55924  1.3036e+22
3.63746  1.3006e+22
3.71568  1.29361e+22
3.7939  1.28321e+22
3.87213  1.2702e+22
3.95035  1.25557e+22
4.02857  1.24039e+22
4.1068  1.22578e+22
4.18502  1.2128e+22
4.26324  1.20233e+22
4.34147  1.19513e+22
4.41969  1.19166e+22
4.49791  1.1922e+22
4.57613  1.19675e+22
4.65436  1.20501e+22
4.73258  1.21643e+22
4.8108  1.23021e+22
4.88903  1.24546e+22
4.96725  1.26106e+22
5.04547  1.27579e+22
5.1237  1.28861e+22
5.20192  1.29836e+22
5.28014  1.30421e+22
5.35836  1.30551e+22
5.43659  1.30188e+22
5.51481  1.29333e+22
5.59303  1.28009e+22
5.67126  1.2627e+22
5.74948  1.24194e+22
5.8277  1.21874e+22
5.90592  1.1941e+22
5.98415  1.16898e+22
6.06237  1.14436e+22
6.14059  1.12102e+22
6.21882  1.09962e+22
6.29704  1.08065e+22
6.37526  1.06434e+22
6.45349  1.05076e+22
6.53171  1.0398e+22
6.60993  1.03119e+22
6.68816  1.02443e+22
6.76638  1.019e+22
6.8446  1.01426e+22
6.92282  1.0095e+22
7.00105  1.00402e+22
7.07927  9.9723e+21
7.15749  9.88686e+21
7.23572  9.77889e+21
7.31394  9.64691e+21
7.39216  9.49018e+21
7.47039  9.30971e+21
7.54861  9.10869e+21
7.62683  8.88978e+21
7.70505  8.65798e+21
7.78328  8.41789e+21
7.8615  8.17439e+21
7.93972  7.93133e+21
8.01795  7.69258e+21
8.09617  7.46065e+21
8.17439  7.23717e+21
8.25262  7.02324e+21
8.33084  6.81855e+21
8.40906  6.62237e+21
8.48728  6.43354e+21
8.56551  6.24987e+21
8.64373  6.0698e+21
8.72195  5.89107e+21
8.80018  5.7118e+21
8.8784  5.53096e+21
8.95662  5.34695e+21
9.03485  5.15919e+21
9.11307  4.96772e+21
9.19129  4.77272e+21
9.26951  4.57466e+21
9.34774  4.37497e+21
9.42596  4.17431e+21
9.50418  3.97393e+21
9.58241  3.77502e+21
9.66063  3.57846e+21
9.73885  3.38525e+21
9.81707  3.19588e+21
9.8953  3.0112e+21
9.97352  2.83151e+21
10.0517  2.6571e+21
10.13  2.48862e+21
10.2082  2.32597e+21
10.2864  2.17029e+21
10.3646  2.02153e+21
10.4429  1.88032e+21
10.5211  1.74771e+21
10.5993  1.62364e+21
10.6775  1.50903e+21
10.7558  1.40401e+21
10.834  1.30872e+21
10.9122  1.22299e+21
10.9904  1.1466e+21
11.0686  1.07895e+21
11.1469  1.01888e+21
11.2251  9.65392e+20
11.3033  9.17167e+20
11.3815  8.7266e+20
11.4598  8.30559e+20
11.538  7.89248e+20
11.6162  7.47615e+20
11.6944  7.04711e+20
11.7727  6.59847e+20
11.8509  6.12861e+20
11.9291  5.64049e+20
12.0073  5.14361e+20
12.0855  4.64759e+20
12.1638  4.16972e+20
12.242  3.72341e+20
12.3202  3.32402e+20
12.3984  2.98204e+20
12.4767  2.70386e+20
12.5549  2.49086e+20
12.6331  2.33633e+20
12.7113  2.23243e+20
12.7895  2.16493e+20
12.8678  2.11973e+20
12.946  2.08388e+20
13.0242  2.04656e+20
13.1024  2.00078e+20
13.1807  1.94289e+20
13.2589  1.87386e+20
13.3371  1.79555e+20
13.4153  1.71134e+20
13.4936  1.62544e+20
13.5718  1.53951e+20
13.65  1.45676e+20
13.7282  1.37802e+20
13.8064  1.30628e+20
13.8847  1.24366e+20
13.9629  1.19514e+20
14.0411  1.16628e+20
14.1193  1.1625e+20
14.1976  1.18913e+20
14.2758  1.24815e+20
14.354  1.33815e+20
14.4322  1.45285e+20
14.5105  1.58375e+20
14.5887  1.71682e+20
14.6669  1.83897e+20
14.7451  1.93714e+20
14.8233  2.00136e+20
14.9016  2.02509e+20
14.9798  2.00627e+20
15.058  1.94898e+20
15.1362  1.85865e+20
15.2145  1.74433e+20
15.2927  1.61473e+20
15.3709  1.4778e+20
15.4491  1.34064e+20
15.5274  1.20819e+20
15.6056  1.0844e+20
15.6838  9.71925e+19
15.762  8.72973e+19
15.8402  7.89283e+19
15.9185  7.22386e+19
15.9967  6.71853e+19
16.0749  6.36179e+19
16.1531  6.12409e+19
16.2314  5.95314e+19
16.3096  5.79025e+19
16.3878  5.57785e+19
16.466  5.26825e+19
16.5443  4.83875e+19
16.6225  4.29922e+19
16.7007  3.67953e+19
16.7789  3.04058e+19
16.8571  2.44499e+19
16.9354  1.94811e+19
17.0136  1.58651e+19
17.0918  1.36719e+19
17.17  1.26879e+19
17.2483  1.24673e+19
17.3265  1.25129e+19
17.4047  1.23587e+19
17.4829  1.17233e+19
17.5612  1.05847e+19
17.6394  9.15091e+18
17.7176  7.78648e+18
17.7958  6.89877e+18
17.874  6.79499e+18
17.9523  7.57555e+18
18.0305  9.13594e+18
18.1087  1.11476e+19
18.1869  1.32458e+19
18.2652  1.50585e+19
18.3434  1.6371e+19
18.4216  1.7212e+19
18.4998  1.78475e+19
18.5781  1.86406e+19
18.6563  2.00206e+19
18.7345  2.22421e+19
18.8127  2.535e+19
18.8909  2.91366e+19
18.9692  3.30718e+19
19.0474  3.65746e+19
19.1256  3.90076e+19
19.2038  3.99607e+19
19.2821  3.92913e+19
19.3603  3.72011e+19
19.4385  3.41391e+19
19.5167  3.07851e+19
19.595  2.76981e+19
19.6732  2.53672e+19
19.7514  2.39963e+19
19.8296  2.35166e+19
19.9078  2.36297e+19
19.9861  2.38868e+19
20.0643  2.39034e+19
20.1425  2.34107e+19
20.2207  2.23652e+19
20.299  2.09141e+19
20.3772  1.93034e+19
20.4554  1.78352e+19
20.5336  1.66677e+19
20.6118  1.58236e+19
20.6901  1.5137e+19
20.7683  1.43422e+19
20.8465  1.3194e+19
20.9247  1.15879e+19
21.003  9.65852e+18
21.0812  7.7978e+18
21.1594  6.5929e+18
21.2376  6.69423e+18
21.3159  8.6078e+18
21.3941  1.25499e+19
21.4723  1.8301e+19
21.5505  2.52444e+19
21.6287  3.23711e+19
21.707  3.86394e+19
21.7852  4.29799e+19
21.8634  4.47403e+19
21.9416  4.37003e+19
22.0199  4.02139e+19
22.0981  3.49837e+19
22.1763  2.8964e+19
22.2545  2.32022e+19
22.3328  1.84319e+19
22.411  1.50975e+19
22.4892  1.32161e+19
22.5674  1.24624e+19
22.6456  1.23416e+19
22.7239  1.24218e+19
22.8021  1.24312e+19
22.8803  1.24099e+19
22.9585  1.26538e+19
23.0368  1.36572e+19
23.115  1.58805e+19
23.1932  1.96051e+19
23.2714  2.47381e+19
23.3497  3.08406e+19
23.4279  3.70835e+19
23.5061  4.25261e+19
23.5843  4.62136e+19
23.6625  4.75128e+19
23.7408  4.61971e+19
23.819  4.2519e+19
23.8972  3.71728e+19
23.9754  3.11191e+19
24.0537  2.53561e+19
24.1319  2.06975e+19
24.2101  1.76395e+19
24.2883  1.62564e+19
24.3666  1.62735e+19
24.4448  1.71829e+19
24.523  1.84275e+19
24.6012  1.95398e+19
24.6794  2.03024e+19
24.7577  2.07258e+19
24.8359  2.10477e+19
24.9141  2.15681e+19
24.9923  2.25223e+19
25.0706  2.398e+19
25.1488  2.57414e+19
25.227  2.74278e+19
25.3052  2.85393e+19
25.3835  2.8602e+19
25.4617  2.73319e+19
25.5399  2.47642e+19
25.6181  2.12357e+19
25.6963  1.73504e+19
25.7746  1.39035e+19
25.8528  1.16037e+19
25.931  1.09939e+19
26.0092  1.22723e+19
26.0875  1.52446e+19
26.1657  1.93905e+19
26.2439  2.39547e+19
26.3221  2.80899e+19
26.4004  3.10664e+19
26.4786  3.23736e+19
26.5568  3.18457e+19
26.635  2.95978e+19
26.7132  2.60539e+19
26.7915  2.17261e+19
26.8697  1.72054e+19
26.9479  1.29893e+19
27.0261  9.41421e+18
27.1044  6.65018e+18
27.1826  4.71435e+18
27.2608  3.50367e+18
27.339  2.88311e+18
27.4172  2.71083e+18
27.4955  2.89572e+18
27.5737  3.38596e+18
27.6519  4.17421e+18
27.7301  5.26073e+18
27.8084  6.6243e+18
27.8866  8.23009e+18
27.9648  9.97165e+18
28.043  1.17242e+19
28.1213  1.33684e+19
28.1995  1.47471e+19
28.2777  1.5752e+19
28.3559  1.6331e+19
28.4341  1.64468e+19
28.5124  1.6122e+19
28.5906  1.54045e+19
28.6688  1.43892e+19
28.747  1.31626e+19
28.8253  1.18493e+19
28.9035  1.05335e+19
28.9817  9.3364e+18
29.0599  8.34713e+18
29.1382  7.64472e+18
29.2164  7.29798e+18
29.2946  7.34197e+18
29.3728  7.80641e+18
29.451  8.68412e+18
29.5293  9.95953e+18
29.6075  1.15693e+19
29.6857  1.34378e+19
29.7639  1.54565e+19
29.8422  1.7506e+19
29.9204  1.93911e+19
29.9986  2.09368e+19
30.0768  2.19741e+19
30.1551  2.23618e+19
30.2333  2.20149e+19
30.3115  2.09432e+19
30.3897  1.92657e+19
30.4679  1.7168e+19
30.5462  1.48783e+19
30.6244  1.26816e+19
30.7026  1.07707e+19
30.7808  9.31462e+18
30.8591  8.3423e+18
30.9373  7.7964e+18
31.0155  7.54751e+18
31.0937  7.45889e+18
31.172  7.41462e+18
31.2502  7.38254e+18
