#S 1 spectral density
#N 2
#UFWHM 16.8179
#L  abscissas [um]  spectral density
-31.25  6.75756e+18
-31.1718  6.71027e+18
-31.0936  6.66576e+18
-31.0153  6.6547e+18
-30.9371  6.79098e+18
-30.8589  7.23131e+18
-30.7807  8.10805e+18
-30.7024  9.48272e+18
-30.6242  1.13319e+19
-30.546  1.35228e+19
-30.4678  1.58263e+19
-30.3895  1.79823e+19
-30.3113  1.97624e+19
-30.2331  2.09451e+19
-30.1549  2.13987e+19
-30.0767  2.11462e+19
-29.9984  2.02168e+19
-29.9202  1.87628e+19
-29.842  1.69455e+19
-29.7638  1.49465e+19
-29.6855  1.29189e+19
-29.6073  1.10402e+19
-29.5291  9.40743e+18
-29.4509  8.09914e+18
-29.3726  7.17947e+18
-29.2944  6.67516e+18
-29.2162  6.59105e+18
-29.138  6.90267e+18
-29.0598  7.56742e+18
-28.9815  8.52402e+18
-28.9033  9.68161e+18
-28.8251  1.09543e+19
-28.7469  1.2214e+19
-28.6686  1.33733e+19
-28.5904  1.43246e+19
-28.5122  1.4959e+19
-28.434  1.52084e+19
-28.3557  1.50371e+19
-28.2775  1.44273e+19
-28.1993  1.34058e+19
-28.1211  1.20749e+19
-28.0429  1.05107e+19
-27.9646  8.87408e+18
-27.8864  7.28024e+18
-27.8082  5.85143e+18
-27.73  4.66027e+18
-27.6517  3.74068e+18
-27.5735  3.09221e+18
-27.4953  2.7084e+18
-27.4171  2.59501e+18
-27.3389  2.80945e+18
-27.2606  3.45653e+18
-27.1824  4.68709e+18
-27.1042  6.64381e+18
-27.026  9.44455e+18
-26.9477  1.30776e+19
-26.8695  1.73551e+19
-26.7913  2.19561e+19
-26.7131  2.63567e+19
-26.6348  2.99636e+19
-26.5566  3.22377e+19
-26.4784  3.27836e+19
-26.4002  3.14483e+19
-26.322  2.84237e+19
-26.2437  2.41989e+19
-26.1655  1.95256e+19
-26.0873  1.52108e+19
-26.0091  1.20233e+19
-25.9308  1.04862e+19
-25.8526  1.07863e+19
-25.7744  1.27363e+19
-25.6962  1.58136e+19
-25.6179  1.93182e+19
-25.5397  2.25158e+19
-25.4615  2.4822e+19
-25.3833  2.59049e+19
-25.3051  2.58047e+19
-25.2268  2.47662e+19
-25.1486  2.32885e+19
-25.0704  2.18264e+19
-24.9922  2.07356e+19
-24.9139  2.01669e+19
-24.8357  2.00197e+19
-24.7575  2.0004e+19
-24.6793  1.98006e+19
-24.601  1.91689e+19
-24.5228  1.80752e+19
-24.4446  1.67431e+19
-24.3664  1.56406e+19
-24.2882  1.53341e+19
-24.2099  1.63387e+19
-24.1317  1.89337e+19
-24.0535  2.30671e+19
-23.9753  2.82583e+19
-23.897  3.37355e+19
-23.8188  3.85394e+19
-23.7406  4.1762e+19
-23.6624  4.2761e+19
-23.5841  4.13128e+19
-23.5059  3.76713e+19
-23.4277  3.24723e+19
-23.3495  2.66281e+19
-23.2713  2.10444e+19
-23.193  1.64673e+19
-23.1148  1.32863e+19
-23.0366  1.15144e+19
-22.9584  1.08383e+19
-22.8801  1.07727e+19
-22.8019  1.08517e+19
-22.7237  1.07789e+19
-22.6455  1.05841e+19
-22.5672  1.05751e+19
-22.489  1.12385e+19
-22.4108  1.31007e+19
-22.3326  1.64769e+19
-22.2544  2.13519e+19
-22.1761  2.72776e+19
-22.0979  3.34479e+19
-22.0197  3.88489e+19
-21.9415  4.24917e+19
-21.8632  4.3582e+19
-21.785  4.1881e+19
-21.7068  3.75632e+19
-21.6286  3.13039e+19
-21.5503  2.41432e+19
-21.4721  1.71757e+19
-21.3939  1.13623e+19
-21.3157  7.34148e+18
-21.2375  5.31318e+18
-21.1592  5.05667e+18
-21.081  6.06171e+18
-21.0028  7.68512e+18
-20.9246  9.36066e+18
-20.8463  1.07081e+19
-20.7681  1.16041e+19
-20.6899  1.21813e+19
-20.6117  1.26956e+19
-20.5334  1.3417e+19
-20.4552  1.45095e+19
-20.377  1.59537e+19
-20.2988  1.75637e+19
-20.2206  1.90717e+19
-20.1423  2.01851e+19
-20.0641  2.07816e+19
-19.9859  2.08981e+19
-19.9077  2.07978e+19
-19.8294  2.08721e+19
-19.7512  2.15473e+19
-19.673  2.31207e+19
-19.5948  2.56693e+19
-19.5165  2.89616e+19
-19.4383  3.25384e+19
-19.3601  3.57803e+19
-19.2819  3.80709e+19
-19.2037  3.89608e+19
-19.1254  3.82337e+19
-19.0472  3.60781e+19
-18.969  3.28829e+19
-18.8908  2.92717e+19
-18.8125  2.58447e+19
-18.7343  2.30293e+19
-18.6561  2.11221e+19
-18.5779  1.9969e+19
-18.4997  1.93489e+19
-18.4214  1.88249e+19
-18.3432  1.80206e+19
-18.265  1.67154e+19
-18.1868  1.48988e+19
-18.1085  1.2803e+19
-18.0303  1.07974e+19
-17.9521  9.28378e+18
-17.8739  8.57538e+18
-17.7956  8.76598e+18
-17.7174  9.73698e+18
-17.6392  1.11573e+19
-17.561  1.26076e+19
-17.4828  1.3696e+19
-17.4045  1.421e+19
-17.3263  1.4148e+19
-17.2481  1.38012e+19
-17.1699  1.36103e+19
-17.0916  1.41224e+19
-17.0134  1.57496e+19
-16.9352  1.87307e+19
-16.857  2.29941e+19
-16.7787  2.82104e+19
-16.7005  3.38276e+19
-16.6223  3.92407e+19
-16.5441  4.3911e+19
-16.4659  4.74679e+19
-16.3876  4.98929e+19
-16.3094  5.14342e+19
-16.2312  5.25152e+19
-16.153  5.36954e+19
-16.0747  5.55795e+19
-15.9965  5.86422e+19
-15.9183  6.32365e+19
-15.8401  6.94805e+19
-15.7618  7.74326e+19
-15.6836  8.69892e+19
-15.6054  9.8033e+19
-15.5272  1.10318e+20
-15.449  1.23627e+20
-15.3707  1.37621e+20
-15.2925  1.51689e+20
-15.2143  1.65146e+20
-15.1361  1.77158e+20
-15.0578  1.86784e+20
-14.9796  1.93113e+20
-14.9014  1.95529e+20
-14.8232  1.93636e+20
-14.7449  1.87558e+20
-14.6667  1.77973e+20
-14.5885  1.65963e+20
-14.5103  1.52739e+20
-14.4321  1.39829e+20
-14.3538  1.28421e+20
-14.2756  1.19504e+20
-14.1974  1.1365e+20
-14.1192  1.11061e+20
-14.0409  1.11411e+20
-13.9627  1.14268e+20
-13.8845  1.19016e+20
-13.8063  1.25141e+20
-13.728  1.3218e+20
-13.6498  1.3987e+20
-13.5716  1.47962e+20
-13.4934  1.56373e+20
-13.4152  1.6481e+20
-13.3369  1.73109e+20
-13.2587  1.8076e+20
-13.1805  1.87539e+20
-13.1023  1.93045e+20
-13.024  1.97296e+20
-12.9458  2.00553e+20
-12.8676  2.03543e+20
-12.7894  2.07229e+20
-12.7111  2.13021e+20
-12.6329  2.22269e+20
-12.5547  2.36368e+20
-12.4765  2.56296e+20
-12.3983  2.82503e+20
-12.32  3.15041e+20
-12.2418  3.5324e+20
-12.1636  3.96032e+20
-12.0854  4.41963e+20
-12.0071  4.89615e+20
-11.9289  5.37424e+20
-11.8507  5.84227e+20
-11.7725  6.29085e+20
-11.6943  6.71858e+20
-11.616  7.12647e+20
-11.5378  7.52047e+20
-11.4596  7.90929e+20
-11.3814  8.30655e+20
-11.3031  8.72467e+20
-11.2249  9.17963e+20
-11.1467  9.68464e+20
-11.0685  1.02527e+21
-10.9902  1.08948e+21
-10.912  1.16204e+21
-10.8338  1.24377e+21
-10.7556  1.33483e+21
-10.6774  1.43541e+21
-10.5991  1.5455e+21
-10.5209  1.66448e+21
-10.4427  1.79236e+21
-10.3645  1.92836e+21
-10.2862  2.07199e+21
-10.208  2.22277e+21
-10.1298  2.38008e+21
-10.0516  2.54363e+21
-9.97334  2.71311e+21
-9.89512  2.88821e+21
-9.8169  3.06828e+21
-9.73868  3.25318e+21
-9.66045  3.44228e+21
-9.58223  3.63496e+21
-9.50401  3.83004e+21
-9.42578  4.02682e+21
-9.34756  4.22401e+21
-9.26934  4.42047e+21
-9.19111  4.61508e+21
-9.11289  4.80666e+21
-9.03467  4.99452e+21
-8.95644  5.17856e+21
-8.87822  5.35862e+21
-8.8  5.53526e+21
-8.72178  5.70945e+21
-8.64355  5.88317e+21
-8.56533  6.05764e+21
-8.48711  6.23455e+21
-8.40888  6.41649e+21
-8.33066  6.60487e+21
-8.25244  6.8011e+21
-8.17422  7.00603e+21
-8.09599  7.21948e+21
-8.01777  7.44122e+21
-7.93955  7.66926e+21
-7.86132  7.90102e+21
-7.7831  8.13282e+21
-7.70488  8.36084e+21
-7.62665  8.58007e+21
-7.54843  8.78605e+21
-7.47021  8.9746e+21
-7.39199  9.14176e+21
-7.31376  9.28527e+21
-7.23554  9.40397e+21
-7.15732  9.49806e+21
-7.07909  9.57033e+21
-7.00087  9.62416e+21
-6.92265  9.66519e+21
-6.84442  9.69969e+21
-6.7662  9.73384e+21
-6.68798  9.7753e+21
-6.60975  9.83042e+21
-6.53153  9.90478e+21
-6.45331  1.00033e+22
-6.37509  1.01291e+22
-6.29686  1.02829e+22
-6.21864  1.04646e+22
-6.14042  1.06716e+22
-6.06219  1.08991e+22
-5.98397  1.11405e+22
-5.90575  1.13879e+22
-5.82752  1.16319e+22
-5.7493  1.18619e+22
-5.67108  1.20678e+22
-5.59286  1.22408e+22
-5.51463  1.23722e+22
-5.43641  1.24573e+22
-5.35819  1.24925e+22
-5.27996  1.24786e+22
-5.20174  1.24191e+22
-5.12352  1.23201e+22
-5.0453  1.21908e+22
-4.96707  1.20413e+22
-4.88885  1.18838e+22
-4.81063  1.17296e+22
-4.7324  1.159e+22
-4.65418  1.14743e+22
-4.57596  1.13903e+22
-4.49773  1.13438e+22
-4.41951  1.13375e+22
-4.34129  1.13715e+22
-4.26307  1.14434e+22
-4.18484  1.15479e+22
-4.10662  1.1678e+22
-4.0284  1.18238e+22
-3.95017  1.19752e+22
-3.87195  1.21209e+22
-3.79373  1.225e+22
-3.7155  1.23527e+22
-3.63728  1.24207e+22
-3.55906  1.24486e+22
-3.48083  1.24336e+22
-3.40261  1.23764e+22
-3.32439  1.22804e+22
-3.24617  1.21515e+22
-3.16794  1.19987e+22
-3.08972  1.18312e+22
-3.0115  1.16599e+22
-2.93327  1.14944e+22
-2.85505  1.13442e+22
-2.77683  1.12176e+22
-2.6986  1.11197e+22
-2.62038  1.10549e+22
-2.54216  1.10239e+22
-2.46394  1.10259e+22
-2.38571  1.10571e+22
-2.30749  1.11119e+22
-2.22927  1.11832e+22
-2.15104  1.12624e+22
-2.07282  1.13408e+22
-1.9946  1.14098e+22
-1.91637  1.14617e+22
-1.83815  1.14908e+22
-1.75993  1.14934e+22
-1.68171  1.14684e+22
-1.60348  1.14171e+22
-1.52526  1.13437e+22
-1.44704  1.12541e+22
-1.36881  1.11561e+22
-1.29059  1.1058e+22
-1.21237  1.09683e+22
-1.13414  1.08954e+22
-1.05592  1.08456e+22
-0.977699  1.08247e+22
-0.899476  1.0836e+22
-0.821253  1.08803e+22
-0.74303  1.09565e+22
-0.664807  1.10608e+22
-0.586584  1.11875e+22
-0.508361  1.1329e+22
-0.430138  1.1476e+22
-0.351915  1.16189e+22
-0.273692  1.17475e+22
-0.195469  1.18528e+22
-0.117246  1.19272e+22
-0.039023  1.19648e+22
0.0392  1.19629e+22
0.117423  1.19217e+22
0.195646  1.18441e+22
0.273869  1.17359e+22
0.352092  1.16049e+22
0.430315  1.14603e+22
0.508538  1.13123e+22
0.586761  1.11707e+22
0.664984  1.10447e+22
0.743207  1.09417e+22
0.82143  1.08677e+22
0.899653  1.08263e+22
0.977876  1.08186e+22
1.0561  1.08437e+22
1.13432  1.08979e+22
1.21254  1.09761e+22
1.29077  1.10715e+22
1.36899  1.11752e+22
1.44721  1.12793e+22
1.52544  1.13749e+22
1.60366  1.14543e+22
1.68188  1.15113e+22
1.76011  1.15422e+22
1.83833  1.15449e+22
1.91655  1.15208e+22
1.99477  1.14735e+22
2.073  1.14087e+22
2.15122  1.13342e+22
2.22944  1.12585e+22
2.30767  1.11907e+22
2.38589  1.1139e+22
2.46411  1.11108e+22
2.54234  1.11119e+22
2.62056  1.11459e+22
2.69878  1.12141e+22
2.77701  1.1315e+22
2.85523  1.14452e+22
2.93345  1.15987e+22
3.01167  1.17674e+22
3.0899  1.19421e+22
3.16812  1.21126e+22
3.24634  1.22684e+22
3.32457  1.23995e+22
3.40279  1.24976e+22
3.48101  1.25565e+22
3.55924  1.25727e+22
3.63746  1.25455e+22
3.71568  1.24776e+22
3.7939  1.23748e+22
3.87213  1.22452e+22
3.95035  1.20985e+22
4.02857  1.19458e+22
4.1068  1.17985e+22
4.18502  1.16671e+22
4.26324  1.15611e+22
4.34147  1.14879e+22
4.41969  1.14526e+22
4.49791  1.14581e+22
4.57613  1.15045e+22
4.65436  1.15888e+22
4.73258  1.17056e+22
4.8108  1.18469e+22
4.88903  1.20036e+22
4.96725  1.21645e+22
5.04547  1.23171e+22
5.1237  1.2451e+22
5.20192  1.25543e+22
5.28014  1.26185e+22
5.35836  1.26372e+22
5.43659  1.26065e+22
5.51481  1.25262e+22
5.59303  1.23991e+22
5.67126  1.22304e+22
5.74948  1.20281e+22
5.8277  1.18017e+22
5.90592  1.15613e+22
5.98415  1.13168e+22
6.06237  1.1078e+22
6.14059  1.08529e+22
6.21882  1.06481e+22
6.29704  1.04683e+22
6.37526  1.0316e+22
6.45349  1.01916e+22
6.53171  1.0094e+22
6.60993  1.002e+22
6.68816  9.96472e+21
6.76638  9.92264e+21
6.8446  9.88706e+21
6.92282  9.85082e+21
7.00105  9.80678e+21
7.07927  9.74889e+21
7.15749  9.67265e+21
7.23572  9.57308e+21
7.31394  9.44869e+21
7.39216  9.29883e+21
7.47039  9.12458e+21
7.54861  8.92922e+21
7.62683  8.71562e+21
7.70505  8.48884e+21
7.78328  8.25366e+21
7.8615  8.01503e+21
7.93972  7.77693e+21
8.01795  7.54326e+21
8.09617  7.31655e+21
8.17439  7.09847e+21
8.25262  6.89008e+21
8.33084  6.691e+21
8.40906  6.50047e+21
8.48728  6.31724e+21
8.56551  6.13905e+21
8.64373  5.9643e+21
8.72195  5.79071e+21
8.80018  5.6163e+21
8.8784  5.44005e+21
8.95662  5.26036e+21
9.03485  5.07659e+21
9.11307  4.88886e+21
9.19129  4.69735e+21
9.26951  4.50254e+21
9.34774  4.30586e+21
9.42596  4.10803e+21
9.50418  3.91031e+21
9.58241  3.71392e+21
9.66063  3.51973e+21
9.73885  3.32878e+21
9.81707  3.14154e+21
9.8953  2.9589e+21
9.97352  2.78114e+21
10.0517  2.60857e+21
10.13  2.44183e+21
10.2082  2.28086e+21
10.2864  2.12676e+21
10.3646  1.97953e+21
10.4429  1.83978e+21
10.5211  1.70855e+21
10.5993  1.58581e+21
10.6775  1.47247e+21
10.7558  1.36866e+21
10.834  1.27454e+21
10.9122  1.18992e+21
10.9904  1.11461e+21
11.0686  1.048e+21
11.1469  9.88946e+20
11.2251  9.36473e+20
11.3033  8.89265e+20
11.3815  8.45807e+20
11.4598  8.04776e+20
11.538  7.64596e+20
11.6162  7.2415e+20
11.6944  6.82512e+20
11.7727  6.38987e+20
11.8509  5.93415e+20
11.9291  5.46086e+20
12.0073  4.97944e+20
12.0855  4.49942e+20
12.1638  4.03775e+20
12.242  3.60765e+20
12.3202  3.22419e+20
12.3984  2.89755e+20
12.4767  2.63379e+20
12.5549  2.43389e+20
12.6331  2.29077e+20
12.7113  2.19629e+20
12.7895  2.13602e+20
12.8678  2.09568e+20
12.946  2.06232e+20
13.0242  2.02519e+20
13.1024  1.97756e+20
13.1807  1.91618e+20
13.2589  1.8425e+20
13.3371  1.75887e+20
13.4153  1.66926e+20
13.4936  1.57833e+20
13.5718  1.48817e+20
13.65  1.40223e+20
13.7282  1.32151e+20
13.8064  1.24897e+20
13.8847  1.18665e+20
13.9629  1.13937e+20
14.0411  1.11247e+20
14.1193  1.11123e+20
14.1976  1.14075e+20
14.2758  1.20289e+20
14.354  1.29624e+20
14.4322  1.41436e+20
14.5105  1.54868e+20
14.5887  1.68508e+20
14.6669  1.81031e+20
14.7451  1.91116e+20
14.8233  1.97743e+20
14.9016  2.00245e+20
14.9798  1.98404e+20
15.058  1.92621e+20
15.1362  1.83432e+20
15.2145  1.71761e+20
15.2927  1.58493e+20
15.3709  1.4445e+20
15.4491  1.3036e+20
15.5274  1.16754e+20
15.6056  1.04048e+20
15.6838  9.25288e+19
15.762  8.24365e+19
15.8402  7.39588e+19
15.9185  6.7254e+19
15.9967  6.22816e+19
16.0749  5.88861e+19
16.1531  5.67616e+19
16.2314  5.53737e+19
16.3096  5.41107e+19
16.3878  5.23767e+19
16.466  4.967e+19
16.5443  4.57406e+19
16.6225  4.06695e+19
16.7007  3.47477e+19
16.7789  2.85793e+19
16.8571  2.28002e+19
16.9354  1.79776e+19
17.0136  1.44953e+19
17.0918  1.24402e+19
17.17  1.16141e+19
17.2483  1.15767e+19
17.3265  1.18279e+19
17.4047  1.1891e+19
17.4829  1.14709e+19
17.5612  1.05277e+19
17.6394  9.25503e+18
17.7176  8.01159e+18
17.7958  7.20338e+18
17.874  7.14702e+18
17.9523  7.95677e+18
18.0305  9.54482e+18
18.1087  1.15969e+19
18.1869  1.37578e+19
18.2652  1.56563e+19
18.3434  1.70678e+19
18.4216  1.80043e+19
18.4998  1.87093e+19
18.5781  1.95223e+19
18.6563  2.08509e+19
18.7345  2.29356e+19
18.8127  2.58145e+19
18.8909  2.92845e+19
18.9692  3.28282e+19
19.0474  3.58869e+19
19.1256  3.78457e+19
19.2038  3.8324e+19
19.2821  3.72064e+19
19.3603  3.47186e+19
19.4385  3.13294e+19
19.5167  2.77263e+19
19.595  2.44752e+19
19.6732  2.20577e+19
19.7514  2.06679e+19
19.8296  2.02202e+19
19.9078  2.03962e+19
19.9861  2.07295e+19
20.0643  2.08224e+19
20.1425  2.03987e+19
20.2207  1.94158e+19
20.299  1.80286e+19
20.3772  1.6502e+19
20.4554  1.51545e+19
20.5336  1.41607e+19
20.6118  1.35539e+19
20.6901  1.31688e+19
20.7683  1.27306e+19
20.8465  1.19735e+19
20.9247  1.07665e+19
21.003  9.21453e+18
21.0812  7.68413e+18
21.1594  6.74542e+18
21.2376  7.03906e+18
21.3159  9.0769e+18
21.3941  1.30846e+19
21.4723  1.88599e+19
21.5505  2.58014e+19
21.6287  3.29136e+19
21.707  3.9153e+19
21.7852  4.3451e+19
21.8634  4.51452e+19
21.9416  4.40001e+19
22.0199  4.03656e+19
22.0981  3.49408e+19
22.1763  2.86896e+19
22.2545  2.26725e+19
22.3328  1.76526e+19
22.411  1.40964e+19
22.4892  1.20448e+19
22.5674  1.11882e+19
22.6456  1.10335e+19
22.7239  1.11383e+19
22.8021  1.12123e+19
22.8803  1.1267e+19
22.9585  1.15745e+19
23.0368  1.26032e+19
23.115  1.47997e+19
23.1932  1.84389e+19
23.2714  2.34345e+19
23.3497  2.9355e+19
23.4279  3.5391e+19
23.5061  4.06154e+19
23.5843  4.40948e+19
23.6625  4.52025e+19
23.7408  4.37251e+19
23.819  3.99192e+19
23.8972  3.44822e+19
23.9754  2.83732e+19
24.0537  2.25928e+19
24.1319  1.79439e+19
24.2101  1.49124e+19
24.2883  1.35608e+19
24.3666  1.35953e+19
24.4448  1.44889e+19
24.523  1.56651e+19
24.6012  1.66466e+19
24.6794  1.72142e+19
24.7577  1.73878e+19
24.8359  1.74282e+19
24.9141  1.76665e+19
24.9923  1.8378e+19
25.0706  1.96662e+19
25.1488  2.13667e+19
25.227  2.31164e+19
25.3052  2.44185e+19
25.3835  2.47867e+19
25.4617  2.39138e+19
25.5399  2.18002e+19
25.6181  1.8748e+19
25.6963  1.53327e+19
25.7746  1.23241e+19
25.8528  1.04199e+19
25.931  1.0158e+19
26.0092  1.1742e+19
26.0875  1.49825e+19
26.1657  1.93655e+19
26.2439  2.41377e+19
26.3221  2.84492e+19
26.4004  3.15645e+19
26.4786  3.29684e+19
26.5568  3.24857e+19
26.635  3.02341e+19
26.7132  2.66446e+19
26.7915  2.22366e+19
26.8697  1.76196e+19
26.9479  1.33064e+19
27.0261  9.64615e+18
27.1044  6.8193e+18
27.1826  4.84171e+18
27.2608  3.60288e+18
27.339  2.95592e+18
27.4172  2.73985e+18
27.4955  2.84658e+18
27.5737  3.21062e+18
27.6519  3.81854e+18
27.7301  4.67067e+18
27.8084  5.75648e+18
27.8866  7.05498e+18
27.9648  8.48195e+18
28.043  9.93452e+18
28.1213  1.13112e+19
28.1995  1.24759e+19
28.2777  1.33288e+19
28.3559  1.38257e+19
28.4341  1.39288e+19
28.5124  1.36569e+19
28.5906  1.3048e+19
28.6688  1.21839e+19
28.747  1.11405e+19
28.8253  1.00272e+19
28.9035  8.91777e+18
28.9817  7.92336e+18
29.0599  7.12663e+18
29.1382  6.6027e+18
29.2164  6.41944e+18
29.2946  6.61315e+18
29.3728  7.21425e+18
29.451  8.22035e+18
29.5293  9.6149e+18
29.6075  1.13375e+19
29.6857  1.33116e+19
29.7639  1.5425e+19
29.8422  1.75553e+19
29.9204  1.95054e+19
29.9986  2.10964e+19
30.0768  2.21552e+19
30.1551  2.254e+19
30.2333  2.21661e+19
30.3115  2.10429e+19
30.3897  1.92925e+19
30.4679  1.71054e+19
30.5462  1.47151e+19
30.6244  1.24135e+19
30.7026  1.04044e+19
30.7808  8.86336e+18
30.8591  7.83236e+18
30.9373  7.26076e+18
31.0155  7.02644e+18
31.0937  6.99478e+18
31.172  7.05e+18
31.2502  7.15282e+18
