#S 1 spectral density
#N 2
#UFWHM 16.4268
#L  abscissas [um]  spectral density
-31.25  8.98361e+18
-31.1718  8.78132e+18
-31.0936  8.63873e+18
-31.0153  8.61301e+18
-30.9371  8.82754e+18
-30.8589  9.43403e+18
-30.7807  1.05404e+19
-30.7024  1.21732e+19
-30.6242  1.42799e+19
-30.546  1.66959e+19
-30.4678  1.91682e+19
-30.3895  2.14248e+19
-30.3113  2.32383e+19
-30.2331  2.43921e+19
-30.1549  2.47694e+19
-30.0767  2.44094e+19
-29.9984  2.33551e+19
-29.9202  2.17729e+19
-29.842  1.98333e+19
-29.7638  1.77261e+19
-29.6855  1.56006e+19
-29.6073  1.36451e+19
-29.5291  1.19553e+19
-29.4509  1.06059e+19
-29.3726  9.66492e+18
-29.2944  9.15574e+18
-29.2162  9.0809e+18
-29.138  9.41303e+18
-29.0598  1.01063e+19
-28.9815  1.10972e+19
-28.9033  1.22862e+19
-28.8251  1.35869e+19
-28.7469  1.4864e+19
-28.6686  1.60266e+19
-28.5904  1.69682e+19
-28.5122  1.75713e+19
-28.434  1.77693e+19
-28.3557  1.7524e+19
-28.2775  1.68144e+19
-28.1993  1.5671e+19
-28.1211  1.41958e+19
-28.0429  1.24656e+19
-27.9646  1.0648e+19
-27.8864  8.85847e+18
-27.8082  7.23422e+18
-27.73  5.85041e+18
-27.6517  4.75409e+18
-27.5735  3.9531e+18
-27.4953  3.44962e+18
-27.4171  3.26e+18
-27.3389  3.44685e+18
-27.2606  4.11783e+18
-27.1824  5.4222e+18
-27.1042  7.49317e+18
-27.026  1.0444e+19
-26.9477  1.42507e+19
-26.8695  1.87129e+19
-26.7913  2.35085e+19
-26.7131  2.80963e+19
-26.6348  3.18861e+19
-26.5566  3.43443e+19
-26.4784  3.50518e+19
-26.4002  3.38759e+19
-26.322  3.09766e+19
-26.2437  2.68414e+19
-26.1655  2.22037e+19
-26.0873  1.78497e+19
-26.0091  1.45428e+19
-25.9308  1.28075e+19
-25.8526  1.28415e+19
-25.7744  1.44888e+19
-25.6962  1.72702e+19
-25.6179  2.05319e+19
-25.5397  2.35881e+19
-25.4615  2.58948e+19
-25.3833  2.71393e+19
-25.3051  2.73597e+19
-25.2268  2.67777e+19
-25.1486  2.58446e+19
-25.0704  2.49618e+19
-24.9922  2.44242e+19
-24.9139  2.43284e+19
-24.8357  2.45357e+19
-24.7575  2.47315e+19
-24.6793  2.45953e+19
-24.601  2.3901e+19
-24.5228  2.26355e+19
-24.4446  2.10476e+19
-24.3664  1.96335e+19
-24.2882  1.89823e+19
-24.2099  1.96291e+19
-24.1317  2.18702e+19
-24.0535  2.56787e+19
-23.9753  3.06036e+19
-23.897  3.58953e+19
-23.8188  4.06241e+19
-23.7406  4.38999e+19
-23.6624  4.50909e+19
-23.5841  4.39456e+19
-23.5059  4.06879e+19
-23.4277  3.58953e+19
-23.3495  3.04133e+19
-23.2713  2.50834e+19
-23.193  2.06063e+19
-23.1148  1.73468e+19
-23.0366  1.53339e+19
-22.9584  1.42955e+19
-22.8801  1.38157e+19
-22.8019  1.35079e+19
-22.7237  1.31464e+19
-22.6455  1.28181e+19
-22.5672  1.28511e+19
-22.489  1.37144e+19
-22.4108  1.58896e+19
-22.3326  1.96286e+19
-22.2544  2.48384e+19
-22.1761  3.10167e+19
-22.0979  3.73109e+19
-22.0197  4.26982e+19
-21.9415  4.62051e+19
-21.8632  4.70782e+19
-21.785  4.51164e+19
-21.7068  4.05374e+19
-21.6286  3.40494e+19
-21.5503  2.67017e+19
-21.4721  1.95855e+19
-21.3939  1.36511e+19
-21.3157  9.5201e+18
-21.2375  7.38843e+18
-21.1592  7.03992e+18
-21.081  7.99091e+18
-21.0028  9.6317e+18
-20.9246  1.14392e+19
-20.8463  1.30678e+19
-20.7681  1.44127e+19
-20.6899  1.56041e+19
-20.6117  1.68686e+19
-20.5334  1.84226e+19
-20.4552  2.03605e+19
-20.377  2.25838e+19
-20.2988  2.48301e+19
-20.2206  2.67672e+19
-20.1423  2.80514e+19
-20.0641  2.85368e+19
-19.9859  2.82533e+19
-19.9077  2.74829e+19
-19.8294  2.66483e+19
-19.7512  2.62309e+19
-19.673  2.65892e+19
-19.5948  2.78694e+19
-19.5165  2.99213e+19
-19.4383  3.23575e+19
-19.3601  3.46252e+19
-19.2819  3.61545e+19
-19.2037  3.65314e+19
-19.1254  3.55384e+19
-19.0472  3.33438e+19
-18.969  3.0293e+19
-18.8908  2.69429e+19
-18.8125  2.38338e+19
-18.7343  2.13299e+19
-18.6561  1.96721e+19
-18.5779  1.86857e+19
-18.4997  1.81329e+19
-18.4214  1.75836e+19
-18.3432  1.66842e+19
-18.265  1.52329e+19
-18.1868  1.3242e+19
-18.1085  1.09591e+19
-18.0303  8.76087e+18
-17.9521  7.05792e+18
-17.8739  6.172e+18
-17.7956  6.21486e+18
-17.7174  7.09301e+18
-17.6392  8.51622e+18
-17.561  1.01048e+19
-17.4828  1.15102e+19
-17.4045  1.25387e+19
-17.3263  1.31947e+19
-17.2481  1.3746e+19
-17.1699  1.45846e+19
-17.0916  1.61857e+19
-17.0134  1.88831e+19
-16.9352  2.28482e+19
-16.857  2.79564e+19
-16.7787  3.38525e+19
-16.7005  4.00041e+19
-16.6223  4.58523e+19
-16.5441  5.09305e+19
-16.4659  5.49435e+19
-16.3876  5.79593e+19
-16.3094  6.02947e+19
-16.2312  6.23942e+19
-16.153  6.48303e+19
-16.0747  6.81651e+19
-15.9965  7.2817e+19
-15.9183  7.90577e+19
-15.8401  8.68983e+19
-15.7618  9.63037e+19
-15.6836  1.0707e+20
-15.6054  1.19003e+20
-15.5272  1.31781e+20
-15.449  1.45147e+20
-15.3707  1.58754e+20
-15.2925  1.71998e+20
-15.2143  1.84249e+20
-15.1361  1.94754e+20
-15.0578  2.0268e+20
-14.9796  2.07265e+20
-14.9014  2.08032e+20
-14.8232  2.04734e+20
-14.7449  1.97629e+20
-14.6667  1.8749e+20
-14.5885  1.75491e+20
-14.5103  1.62844e+20
-14.4321  1.51081e+20
-14.3538  1.41327e+20
-14.2756  1.34482e+20
-14.1974  1.31015e+20
-14.1192  1.31017e+20
-14.0409  1.34032e+20
-13.9627  1.39505e+20
-13.8845  1.46698e+20
-13.8063  1.55005e+20
-13.728  1.63862e+20
-13.6498  1.7294e+20
-13.5716  1.81941e+20
-13.4934  1.90787e+20
-13.4152  1.9921e+20
-13.3369  2.07149e+20
-13.2587  2.14189e+20
-13.1805  2.20298e+20
-13.1023  2.25262e+20
-13.024  2.29316e+20
-12.9458  2.32914e+20
-12.8676  2.36966e+20
-12.7894  2.42568e+20
-12.7111  2.51187e+20
-12.6329  2.64194e+20
-12.5547  2.82934e+20
-12.4765  3.08289e+20
-12.3983  3.40572e+20
-12.32  3.79673e+20
-12.2418  4.24775e+20
-12.1636  4.74662e+20
-12.0854  5.27756e+20
-12.0071  5.826e+20
-11.9289  6.37544e+20
-11.8507  6.91455e+20
-11.7725  7.43413e+20
-11.6943  7.93371e+20
-11.616  8.4152e+20
-11.5378  8.88593e+20
-11.4596  9.35623e+20
-11.3814  9.84105e+20
-11.3031  1.03549e+21
-11.2249  1.0915e+21
-11.1467  1.15365e+21
-11.0685  1.22335e+21
-10.9902  1.3018e+21
-10.912  1.39009e+21
-10.8338  1.48907e+21
-10.7556  1.59893e+21
-10.6774  1.71987e+21
-10.5991  1.85186e+21
-10.5209  1.99424e+21
-10.4427  2.14699e+21
-10.3645  2.30927e+21
-10.2862  2.48049e+21
-10.208  2.66018e+21
-10.1298  2.84761e+21
-10.0516  3.0424e+21
-9.97334  3.24427e+21
-9.89512  3.45279e+21
-9.8169  3.66723e+21
-9.73868  3.88741e+21
-9.66045  4.11262e+21
-9.58223  4.34216e+21
-9.50401  4.57473e+21
-9.42578  4.80958e+21
-9.34756  5.04533e+21
-9.26934  5.28076e+21
-9.19111  5.51474e+21
-9.11289  5.74603e+21
-9.03467  5.97389e+21
-8.95644  6.19834e+21
-8.87822  6.41918e+21
-8.8  6.63713e+21
-8.72178  6.85326e+21
-8.64355  7.06968e+21
-8.56533  7.28776e+21
-8.48711  7.50927e+21
-8.40888  7.737e+21
-8.33066  7.9724e+21
-8.25244  8.2169e+21
-8.17422  8.47141e+21
-8.09599  8.73567e+21
-8.01777  9.00935e+21
-7.93955  9.29033e+21
-7.86132  9.57577e+21
-7.7831  9.86178e+21
-7.70488  1.01443e+22
-7.62665  1.0418e+22
-7.54843  1.06783e+22
-7.47021  1.09207e+22
-7.39199  1.11411e+22
-7.31376  1.1337e+22
-7.23554  1.15073e+22
-7.15732  1.16521e+22
-7.07909  1.17743e+22
-7.00087  1.18771e+22
-6.92265  1.19665e+22
-6.84442  1.20487e+22
-6.7662  1.213e+22
-6.68798  1.22181e+22
-6.60975  1.23194e+22
-6.53153  1.24396e+22
-6.45331  1.25834e+22
-6.37509  1.27537e+22
-6.29686  1.2951e+22
-6.21864  1.31749e+22
-6.14042  1.34223e+22
-6.06219  1.36881e+22
-5.98397  1.39651e+22
-5.90575  1.42448e+22
-5.82752  1.45172e+22
-5.7493  1.47717e+22
-5.67108  1.49977e+22
-5.59286  1.5186e+22
-5.51463  1.53279e+22
-5.43641  1.54189e+22
-5.35819  1.54553e+22
-5.27996  1.54383e+22
-5.20174  1.53714e+22
-5.12352  1.52614e+22
-5.0453  1.51177e+22
-4.96707  1.4951e+22
-4.88885  1.47738e+22
-4.81063  1.4598e+22
-4.7324  1.44354e+22
-4.65418  1.42956e+22
-4.57596  1.4187e+22
-4.49773  1.41158e+22
-4.41951  1.40849e+22
-4.34129  1.40948e+22
-4.26307  1.41433e+22
-4.18484  1.42252e+22
-4.10662  1.43335e+22
-4.0284  1.44584e+22
-3.95017  1.45898e+22
-3.87195  1.47161e+22
-3.79373  1.48263e+22
-3.7155  1.49104e+22
-3.63728  1.49596e+22
-3.55906  1.49685e+22
-3.48083  1.49337e+22
-3.40261  1.48556e+22
-3.32439  1.47372e+22
-3.24617  1.45841e+22
-3.16794  1.44047e+22
-3.08972  1.42081e+22
-3.0115  1.40048e+22
-2.93327  1.38043e+22
-2.85505  1.36161e+22
-2.77683  1.34485e+22
-2.6986  1.3307e+22
-2.62038  1.31963e+22
-2.54216  1.31176e+22
-2.46394  1.30705e+22
-2.38571  1.30518e+22
-2.30749  1.30568e+22
-2.22927  1.30788e+22
-2.15104  1.31098e+22
-2.07282  1.31417e+22
-1.9946  1.31663e+22
-1.91637  1.31764e+22
-1.83815  1.31662e+22
-1.75993  1.31322e+22
-1.68171  1.30733e+22
-1.60348  1.29904e+22
-1.52526  1.28873e+22
-1.44704  1.27695e+22
-1.36881  1.26441e+22
-1.29059  1.2519e+22
-1.21237  1.24019e+22
-1.13414  1.23007e+22
-1.05592  1.22216e+22
-0.977699  1.21699e+22
-0.899476  1.21487e+22
-0.821253  1.21591e+22
-0.74303  1.22002e+22
-0.664807  1.22688e+22
-0.586584  1.23596e+22
-0.508361  1.24656e+22
-0.430138  1.25787e+22
-0.351915  1.26898e+22
-0.273692  1.27896e+22
-0.195469  1.28697e+22
-0.117246  1.29229e+22
-0.039023  1.29439e+22
0.0392  1.29301e+22
0.117423  1.28814e+22
0.195646  1.28006e+22
0.273869  1.26929e+22
0.352092  1.25653e+22
0.430315  1.24263e+22
0.508538  1.22849e+22
0.586761  1.21501e+22
0.664984  1.20304e+22
0.743207  1.19321e+22
0.82143  1.18608e+22
0.899653  1.18195e+22
0.977876  1.18091e+22
1.0561  1.18288e+22
1.13432  1.1875e+22
1.21254  1.1943e+22
1.29077  1.20267e+22
1.36899  1.21181e+22
1.44721  1.22098e+22
1.52544  1.22941e+22
1.60366  1.23639e+22
1.68188  1.24139e+22
1.76011  1.24407e+22
1.83833  1.2443e+22
1.91655  1.24219e+22
1.99477  1.2381e+22
2.073  1.23258e+22
2.15122  1.22634e+22
2.22944  1.22014e+22
2.30767  1.21481e+22
2.38589  1.2111e+22
2.46411  1.20965e+22
2.54234  1.21094e+22
2.62056  1.21527e+22
2.69878  1.22272e+22
2.77701  1.23311e+22
2.85523  1.24608e+22
2.93345  1.26103e+22
3.01167  1.2772e+22
3.0899  1.29369e+22
3.16812  1.30956e+22
3.24634  1.32382e+22
3.32457  1.33556e+22
3.40279  1.34399e+22
3.48101  1.3486e+22
3.55924  1.34908e+22
3.63746  1.34541e+22
3.71568  1.3379e+22
3.7939  1.32712e+22
3.87213  1.31386e+22
3.95035  1.29908e+22
4.02857  1.28383e+22
4.1068  1.26918e+22
4.18502  1.25616e+22
4.26324  1.24562e+22
4.34147  1.23826e+22
4.41969  1.23455e+22
4.49791  1.23472e+22
4.57613  1.23878e+22
4.65436  1.24643e+22
4.73258  1.25713e+22
4.8108  1.27009e+22
4.88903  1.28445e+22
4.96725  1.29913e+22
5.04547  1.31293e+22
5.1237  1.32485e+22
5.20192  1.33375e+22
5.28014  1.33882e+22
5.35836  1.33942e+22
5.43659  1.3352e+22
5.51481  1.32613e+22
5.59303  1.31245e+22
5.67126  1.29467e+22
5.74948  1.27354e+22
5.8277  1.24997e+22
5.90592  1.22491e+22
5.98415  1.19931e+22
6.06237  1.1741e+22
6.14059  1.15006e+22
6.21882  1.12783e+22
6.29704  1.10788e+22
6.37526  1.09048e+22
6.45349  1.07569e+22
6.53171  1.06343e+22
6.60993  1.05346e+22
6.68816  1.0453e+22
6.76638  1.03847e+22
6.8446  1.03235e+22
6.92282  1.02628e+22
7.00105  1.01957e+22
7.07927  1.01165e+22
7.15749  1.0021e+22
7.23572  9.90413e+21
7.31394  9.76453e+21
7.39216  9.60134e+21
7.47039  9.41548e+21
7.54861  9.21e+21
7.62683  8.98734e+21
7.70505  8.75232e+21
7.78328  8.50936e+21
7.8615  8.26317e+21
7.93972  8.0174e+21
8.01795  7.77585e+21
8.09617  7.54095e+21
8.17439  7.31426e+21
8.25262  7.09689e+21
8.33084  6.88858e+21
8.40906  6.68863e+21
8.48728  6.49598e+21
8.56551  6.30854e+21
8.64373  6.12479e+21
8.72195  5.94256e+21
8.80018  5.76009e+21
8.8784  5.57638e+21
8.95662  5.38984e+21
9.03485  5.19995e+21
9.11307  5.00673e+21
9.19129  4.81031e+21
9.26951  4.61114e+21
9.34774  4.41062e+21
9.42596  4.20934e+21
9.50418  4.0085e+21
9.58241  3.80923e+21
9.66063  3.61238e+21
9.73885  3.41888e+21
9.81707  3.22922e+21
9.8953  3.04419e+21
9.97352  2.86411e+21
10.0517  2.68923e+21
10.13  2.52024e+21
10.2082  2.35698e+21
10.2864  2.20065e+21
10.3646  2.05116e+21
10.4429  1.90918e+21
10.5211  1.77574e+21
10.5993  1.65081e+21
10.6775  1.5353e+21
10.7558  1.42936e+21
10.834  1.33313e+21
10.9122  1.24646e+21
10.9904  1.16915e+21
11.0686  1.10059e+21
11.1469  1.03964e+21
11.2251  9.853e+20
11.3033  9.36267e+20
11.3815  8.90982e+20
11.4598  8.48153e+20
11.538  8.06137e+20
11.6162  7.63829e+20
11.6944  7.20252e+20
11.7727  6.74719e+20
11.8509  6.27052e+20
11.9291  5.77529e+20
12.0073  5.27089e+20
12.0855  4.76677e+20
12.1638  4.28025e+20
12.242  3.82471e+20
12.3202  3.41554e+20
12.3984  3.06338e+20
12.4767  2.77482e+20
12.5549  2.55158e+20
12.6331  2.38734e+20
12.7113  2.27465e+20
12.7895  2.19962e+20
12.8678  2.14844e+20
12.946  2.10844e+20
13.0242  2.06883e+20
13.1024  2.02262e+20
13.1807  1.9659e+20
13.2589  1.89935e+20
13.3371  1.82438e+20
13.4153  1.74396e+20
13.4936  1.66189e+20
13.5718  1.57942e+20
13.65  1.49956e+20
13.7282  1.42293e+20
13.8064  1.35246e+20
13.8847  1.29027e+20
13.9629  1.24133e+20
14.0411  1.21132e+20
14.1193  1.20566e+20
14.1976  1.22983e+20
14.2758  1.28584e+20
14.354  1.37233e+20
14.4322  1.48324e+20
14.5105  1.61021e+20
14.5887  1.73945e+20
14.6669  1.85813e+20
14.7451  1.95345e+20
14.8233  2.01573e+20
14.9016  2.03855e+20
14.9798  2.01995e+20
15.058  1.96399e+20
15.1362  1.8761e+20
15.2145  1.76507e+20
15.2927  1.63944e+20
15.3709  1.50685e+20
15.4491  1.37423e+20
15.5274  1.24623e+20
15.6056  1.12665e+20
15.6838  1.01795e+20
15.762  9.2221e+19
15.8402  8.41012e+19
15.9185  7.75791e+19
15.9967  7.26022e+19
16.0749  6.90151e+19
16.1531  6.65198e+19
16.2314  6.45934e+19
16.3096  6.26639e+19
16.3878  6.01667e+19
16.466  5.66456e+19
16.5443  5.18942e+19
16.6225  4.60322e+19
16.7007  3.93723e+19
16.7789  3.25397e+19
16.8571  2.61643e+19
16.9354  2.08039e+19
17.0136  1.68233e+19
17.0918  1.42931e+19
17.17  1.29974e+19
17.2483  1.24948e+19
17.3265  1.22938e+19
17.4047  1.1935e+19
17.4829  1.11418e+19
17.5612  9.89637e+18
17.6394  8.40701e+18
17.7176  7.03152e+18
17.7958  6.16967e+18
17.874  6.11678e+18
17.9523  6.96356e+18
18.0305  8.5964e+18
18.1087  1.06834e+19
18.1869  1.28593e+19
18.2652  1.47558e+19
18.3434  1.61669e+19
18.4216  1.71284e+19
18.4998  1.79122e+19
18.5781  1.88843e+19
18.6563  2.04734e+19
18.7345  2.29292e+19
18.8127  2.62894e+19
18.8909  3.03368e+19
18.9692  3.4532e+19
19.0474  3.82836e+19
19.1256  4.09491e+19
19.2038  4.21091e+19
19.2821  4.16146e+19
19.3603  3.96609e+19
19.4385  3.6691e+19
19.5167  3.33858e+19
19.595  3.03019e+19
19.6732  2.79365e+19
19.7514  2.65014e+19
19.8296  2.59417e+19
19.9078  2.5975e+19
19.9861  2.61662e+19
20.0643  2.61416e+19
20.1425  2.56363e+19
20.2207  2.46045e+19
20.299  2.31841e+19
20.3772  2.16025e+19
20.4554  2.01456e+19
20.5336  1.89562e+19
20.6118  1.80461e+19
20.6901  1.72462e+19
20.7683  1.62959e+19
20.8465  1.4961e+19
20.9247  1.31528e+19
21.003  1.10207e+19
21.0812  8.96742e+18
21.1594  7.58645e+18
21.2376  7.53155e+18
21.3159  9.30457e+18
21.3941  1.3123e+19
21.4723  1.87676e+19
21.5505  2.56287e+19
21.6287  3.27085e+19
21.707  3.89843e+19
21.7852  4.33982e+19
21.8634  4.53058e+19
21.9416  4.44887e+19
22.0199  4.12788e+19
22.0981  3.63533e+19
22.1763  3.06262e+19
22.2545  2.51069e+19
22.3328  2.04874e+19
22.411  1.71934e+19
22.4892  1.5238e+19
22.5674  1.43126e+19
22.6456  1.39616e+19
22.7239  1.38076e+19
22.8021  1.36335e+19
22.8803  1.35316e+19
22.9585  1.38306e+19
23.0368  1.50385e+19
23.115  1.7604e+19
23.1932  2.17765e+19
23.2714  2.74115e+19
23.3497  3.40188e+19
23.4279  4.07127e+19
23.5061  4.65133e+19
23.5843  5.04328e+19
23.6625  5.18345e+19
23.7408  5.0493e+19
23.819  4.66816e+19
23.8972  4.11209e+19
23.9754  3.48023e+19
24.0537  2.875e+19
24.1319  2.38085e+19
24.2101  2.04981e+19
24.2883  1.89117e+19
24.3666  1.87922e+19
24.4448  1.96452e+19
24.523  2.09229e+19
24.6012  2.21568e+19
24.6794  2.31216e+19
24.7577  2.38107e+19
24.8359  2.44334e+19
24.9141  2.52568e+19
24.9923  2.64767e+19
25.0706  2.81295e+19
25.1488  2.99816e+19
25.227  3.16385e+19
25.3052  3.25956e+19
25.3835  3.23878e+19
25.4617  3.07499e+19
25.5399  2.77479e+19
25.6181  2.375e+19
25.6963  1.93883e+19
25.7746  1.54852e+19
25.8528  1.27658e+19
25.931  1.17852e+19
26.0092  1.27438e+19
26.0875  1.54484e+19
26.1657  1.93767e+19
26.2439  2.37717e+19
26.3221  2.77859e+19
26.4004  3.06889e+19
26.4786  3.19671e+19
26.5568  3.14563e+19
26.635  2.9263e+19
26.7132  2.5801e+19
26.7915  2.15753e+19
26.8697  1.71613e+19
26.9479  1.30462e+19
27.0261  9.55807e+18
27.1044  6.86008e+18
27.1826  4.97081e+18
27.2608  3.79205e+18
27.339  3.19445e+18
27.4172  3.04784e+18
27.4955  3.26935e+18
27.5737  3.81405e+18
27.6519  4.67685e+18
27.7301  5.8588e+18
27.8084  7.33338e+18
27.8866  9.06043e+18
27.9648  1.09254e+19
28.043  1.27953e+19
28.1213  1.45459e+19
28.1995  1.60133e+19
28.2777  1.70891e+19
28.3559  1.77181e+19
28.4341  1.78656e+19
28.5124  1.7555e+19
28.5906  1.68383e+19
28.6688  1.58143e+19
28.747  1.45719e+19
28.8253  1.32394e+19
28.9035  1.19038e+19
28.9817  1.06892e+19
29.0599  9.68551e+18
29.1382  8.97388e+18
29.2164  8.62361e+18
29.2946  8.6696e+18
29.3728  9.14275e+18
29.451  1.00336e+19
29.5293  1.13289e+19
29.6075  1.29624e+19
29.6857  1.4858e+19
29.7639  1.69066e+19
29.8422  1.8987e+19
29.9204  2.09016e+19
29.9986  2.24718e+19
30.0768  2.35294e+19
30.1551  2.39293e+19
30.2333  2.35844e+19
30.3115  2.25052e+19
30.3897  2.08086e+19
30.4679  1.86792e+19
30.5462  1.63465e+19
30.6244  1.4095e+19
30.7026  1.21148e+19
30.7808  1.05786e+19
30.8591  9.51199e+18
30.9373  8.86035e+18
31.0155  8.49523e+18
31.0937  8.28475e+18
31.172  8.11606e+18
31.2502  7.96351e+18
