#S 1 spectral density
#N 2
#UFWHM 15.9574
#L  abscissas [um]  spectral density
-45.0094  2.55621e+19
-44.9155  2.48674e+19
-44.8216  2.13769e+19
-44.7278  1.65582e+19
-44.6339  1.2022e+19
-44.54  8.87082e+18
-44.4462  7.26789e+18
-44.3523  6.72427e+18
-44.2584  6.55486e+18
-44.1646  6.40108e+18
-44.0707  6.38455e+18
-43.9768  6.88981e+18
-43.883  8.18762e+18
-43.7891  1.01327e+19
-43.6952  1.22273e+19
-43.6014  1.40243e+19
-43.5075  1.54623e+19
-43.4136  1.69789e+19
-43.3198  1.91914e+19
-43.2259  2.24245e+19
-43.132  2.62297e+19
-43.0382  2.95183e+19
-42.9443  3.09676e+19
-42.8504  2.98229e+19
-42.7566  2.62504e+19
-42.6627  2.13688e+19
-42.5688  1.6666e+19
-42.475  1.33078e+19
-42.3811  1.16146e+19
-42.2872  1.10974e+19
-42.1934  1.0878e+19
-42.0995  1.0266e+19
-42.0056  9.1722e+18
-41.9118  8.11454e+18
-41.8179  7.95806e+18
-41.724  9.50345e+18
-41.6302  1.32067e+19
-41.5363  1.9098e+19
-41.4424  2.67285e+19
-41.3486  3.52452e+19
-41.2547  4.34094e+19
-41.1608  4.97329e+19
-41.067  5.27982e+19
-40.9731  5.18325e+19
-40.8792  4.69759e+19
-40.7854  3.95112e+19
-40.6915  3.15084e+19
-40.5976  2.49763e+19
-40.5038  2.10695e+19
-40.4099  1.98089e+19
-40.316  2.01578e+19
-40.2222  2.09201e+19
-40.1283  2.15136e+19
-40.0344  2.23789e+19
-39.9406  2.46511e+19
-39.8467  2.93274e+19
-39.7528  3.62745e+19
-39.659  4.38765e+19
-39.5651  4.95035e+19
-39.4712  5.06186e+19
-39.3774  4.59295e+19
-39.2835  3.62107e+19
-39.1896  2.40347e+19
-39.0958  1.28828e+19
-39.0019  5.61527e+18
-38.908  3.59754e+18
-38.8142  6.27058e+18
-38.7203  1.16258e+19
-38.6264  1.72328e+19
-38.5326  2.10875e+19
-38.4387  2.22771e+19
-38.3448  2.09291e+19
-38.251  1.79205e+19
-38.1571  1.43305e+19
-38.0632  1.10298e+19
-37.9694  8.62014e+18
-37.8755  7.39332e+18
-37.7816  7.41882e+18
-37.6878  8.59707e+18
-37.5939  1.06229e+19
-37.5  1.30483e+19
-37.4062  1.53491e+19
-37.3123  1.70995e+19
-37.2184  1.80519e+19
-37.1246  1.82648e+19
-37.0307  1.79017e+19
-36.9368  1.72269e+19
-36.843  1.63754e+19
-36.7491  1.54948e+19
-36.6552  1.46253e+19
-36.5614  1.39049e+19
-36.4675  1.34615e+19
-36.3736  1.34127e+19
-36.2798  1.37907e+19
-36.1859  1.44647e+19
-36.092  1.52524e+19
-35.9982  1.59747e+19
-35.9043  1.65242e+19
-35.8104  1.68484e+19
-35.7166  1.68785e+19
-35.6227  1.64855e+19
-35.5288  1.54816e+19
-35.435  1.37592e+19
-35.3411  1.14143e+19
-35.2472  8.8434e+18
-35.1533  6.64063e+18
-35.0595  5.44578e+18
-34.9656  5.61716e+18
-34.8717  7.0805e+18
-34.7779  9.26523e+18
-34.684  1.13104e+19
-34.5901  1.2337e+19
-34.4963  1.18612e+19
-34.4024  9.93082e+18
-34.3085  7.26137e+18
-34.2147  4.94471e+18
-34.1208  4.08793e+18
-34.0269  5.37769e+18
-33.9331  8.79403e+18
-33.8392  1.35827e+19
-33.7453  1.85359e+19
-33.6515  2.23846e+19
-33.5576  2.42693e+19
-33.4637  2.39555e+19
-33.3699  2.18379e+19
-33.276  1.86888e+19
-33.1821  1.53708e+19
-33.0883  1.25629e+19
-32.9944  1.05979e+19
-32.9005  9.56474e+18
-32.8067  9.39154e+18
-32.7128  1.00024e+19
-32.6189  1.13112e+19
-32.5251  1.32438e+19
-32.4312  1.56009e+19
-32.3373  1.80987e+19
-32.2435  2.03634e+19
-32.1496  2.21099e+19
-32.0557  2.32767e+19
-31.9619  2.4117e+19
-31.868  2.50993e+19
-31.7741  2.66306e+19
-31.6803  2.88541e+19
-31.5864  3.145e+19
-31.4925  3.38016e+19
-31.3987  3.53327e+19
-31.3048  3.5722e+19
-31.2109  3.53174e+19
-31.1171  3.4782e+19
-31.0232  3.47992e+19
-30.9293  3.5668e+19
-30.8355  3.7017e+19
-30.7416  3.80536e+19
-30.6477  3.77879e+19
-30.5539  3.56797e+19
-30.46  3.16625e+19
-30.3661  2.62483e+19
-30.2723  2.03298e+19
-30.1784  1.49109e+19
-30.0845  1.10149e+19
-29.9907  9.55406e+18
-29.8968  1.11789e+19
-29.8029  1.60067e+19
-29.7091  2.33963e+19
-29.6152  3.17811e+19
-29.5213  3.90791e+19
-29.4275  4.32224e+19
-29.3336  4.30858e+19
-29.2397  3.87358e+19
-29.1459  3.16604e+19
-29.052  2.3979e+19
-28.9581  1.77417e+19
-28.8643  1.41404e+19
-28.7704  1.32598e+19
-28.6765  1.4387e+19
-28.5827  1.64442e+19
-28.4888  1.85443e+19
-28.3949  2.02138e+19
-28.3011  2.13211e+19
-28.2072  2.18595e+19
-28.1133  2.17583e+19
-28.0195  2.08902e+19
-27.9256  1.91974e+19
-27.8317  1.68542e+19
-27.7379  1.4323e+19
-27.644  1.22318e+19
-27.5501  1.11062e+19
-27.4563  1.12477e+19
-27.3624  1.25014e+19
-27.2685  1.44046e+19
-27.1747  1.63749e+19
-27.0808  1.78757e+19
-26.9869  1.86024e+19
-26.8931  1.85022e+19
-26.7992  1.77059e+19
-26.7053  1.6504e+19
-26.6115  1.5189e+19
-26.5176  1.40582e+19
-26.4237  1.34017e+19
-26.3299  1.34834e+19
-26.236  1.45025e+19
-26.1421  1.65682e+19
-26.0482  1.95832e+19
-25.9544  2.32756e+19
-25.8605  2.71679e+19
-25.7666  3.06679e+19
-25.6728  3.32818e+19
-25.5789  3.45939e+19
-25.485  3.46169e+19
-25.3912  3.36086e+19
-25.2973  3.21511e+19
-25.2034  3.07704e+19
-25.1096  2.98665e+19
-25.0157  2.93267e+19
-24.9218  2.86459e+19
-24.828  2.70636e+19
-24.7341  2.40394e+19
-24.6402  1.95246e+19
-24.5464  1.41821e+19
-24.4525  9.22611e+18
-24.3586  5.91698e+18
-24.2648  5.08911e+18
-24.1709  6.65945e+18
-24.077  9.70898e+18
-23.9832  1.27963e+19
-23.8893  1.45767e+19
-23.7954  1.43658e+19
-23.7016  1.23185e+19
-23.6077  9.25005e+18
-23.5138  6.21458e+18
-23.42  4.01816e+18
-23.3261  2.92059e+18
-23.2322  2.6709e+18
-23.1384  2.79355e+18
-23.0445  2.9348e+18
-22.9506  3.10604e+18
-22.8568  3.74177e+18
-22.7629  5.57129e+18
-22.669  9.31269e+18
-22.5752  1.53594e+19
-22.4813  2.3575e+19
-22.3874  3.31497e+19
-22.2936  4.27547e+19
-22.1997  5.07836e+19
-22.1058  5.5866e+19
-22.012  5.72036e+19
-21.9181  5.48138e+19
-21.8242  4.95522e+19
-21.7304  4.26811e+19
-21.6365  3.56866e+19
-21.5426  2.97443e+19
-21.4488  2.55554e+19
-21.3549  2.34314e+19
-21.261  2.33643e+19
-21.1672  2.50948e+19
-21.0733  2.8129e+19
-20.9794  3.18465e+19
-20.8856  3.53186e+19
-20.7917  3.76752e+19
-20.6978  3.82286e+19
-20.604  3.67155e+19
-20.5101  3.34979e+19
-20.4162  2.93204e+19
-20.3224  2.50945e+19
-20.2285  2.16951e+19
-20.1346  1.96551e+19
-20.0408  1.92069e+19
-19.9469  2.04662e+19
-19.853  2.34444e+19
-19.7592  2.82507e+19
-19.6653  3.49367e+19
-19.5714  4.33465e+19
-19.4776  5.30352e+19
-19.3837  6.30785e+19
-19.2898  7.2242e+19
-19.196  7.92217e+19
-19.1021  8.29157e+19
-19.0082  8.28299e+19
-18.9144  7.92562e+19
-18.8205  7.32054e+19
-18.7266  6.61831e+19
-18.6328  5.97592e+19
-18.5389  5.5089e+19
-18.445  5.25753e+19
-18.3512  5.16972e+19
-18.2573  5.12302e+19
-18.1634  4.98282e+19
-18.0696  4.64098e+19
-17.9757  4.09741e+19
-17.8818  3.4454e+19
-17.788  2.8527e+19
-17.6941  2.49417e+19
-17.6002  2.4706e+19
-17.5064  2.76533e+19
-17.4125  3.25661e+19
-17.3186  3.75411e+19
-17.2248  4.09741e+19
-17.1309  4.22321e+19
-17.037  4.16076e+19
-16.9432  4.01108e+19
-16.8493  3.86612e+19
-16.7554  3.76086e+19
-16.6615  3.67728e+19
-16.5677  3.59439e+19
-16.4738  3.54763e+19
-16.3799  3.67449e+19
-16.2861  4.19183e+19
-16.1922  5.31777e+19
-16.0983  7.1746e+19
-16.0045  9.71997e+19
-15.9106  1.27423e+20
-15.8167  1.58879e+20
-15.7229  1.87749e+20
-15.629  2.1056e+20
-15.5351  2.24908e+20
-15.4413  2.29596e+20
-15.3474  2.25049e+20
-15.2535  2.12817e+20
-15.1597  1.95407e+20
-15.0658  1.75779e+20
-14.9719  1.56753e+20
-14.8781  1.40498e+20
-14.7842  1.28155e+20
-14.6903  1.20096e+20
-14.5965  1.16166e+20
-14.5026  1.15988e+20
-14.4087  1.1934e+20
-14.3149  1.26064e+20
-14.221  1.35622e+20
-14.1271  1.46938e+20
-14.0333  1.58267e+20
-13.9394  1.67408e+20
-13.8455  1.72457e+20
-13.7517  1.72387e+20
-13.6578  1.67294e+20
-13.5639  1.58648e+20
-13.4701  1.48384e+20
-13.3762  1.38747e+20
-13.2823  1.31603e+20
-13.1885  1.28548e+20
-13.0946  1.30842e+20
-13.0007  1.39706e+20
-12.9069  1.5591e+20
-12.813  1.79825e+20
-12.7191  2.10551e+20
-12.6253  2.45993e+20
-12.5314  2.82865e+20
-12.4375  3.1776e+20
-12.3437  3.47925e+20
-12.2498  3.72423e+20
-12.1559  3.92215e+20
-12.0621  4.10081e+20
-11.9682  4.29149e+20
-11.8743  4.52427e+20
-11.7805  4.82194e+20
-11.6866  5.1986e+20
-11.5927  5.6633e+20
-11.4989  6.2256e+20
-11.405  6.89635e+20
-11.3111  7.68547e+20
-11.2173  8.59902e+20
-11.1234  9.63149e+20
-11.0295  1.07624e+21
-10.9357  1.19616e+21
-10.8418  1.31935e+21
-10.7479  1.44173e+21
-10.6541  1.55962e+21
-10.5602  1.67005e+21
-10.4663  1.77114e+21
-10.3725  1.8619e+21
-10.2786  1.94294e+21
-10.1847  2.01656e+21
-10.0909  2.08659e+21
-9.99699  2.15889e+21
-9.90313  2.24043e+21
-9.80926  2.33824e+21
-9.71539  2.45853e+21
-9.62153  2.60564e+21
-9.52766  2.78102e+21
-9.43379  2.98268e+21
-9.33992  3.20622e+21
-9.24606  3.44526e+21
-9.15219  3.69258e+21
-9.05832  3.94089e+21
-8.96446  4.18557e+21
-8.87059  4.42226e+21
-8.77672  4.64903e+21
-8.68285  4.8656e+21
-8.58899  5.07278e+21
-8.49512  5.27139e+21
-8.40125  5.46144e+21
-8.30739  5.64216e+21
-8.21352  5.81114e+21
-8.11965  5.96502e+21
-8.02579  6.10037e+21
-7.93192  6.21597e+21
-7.83805  6.31427e+21
-7.74418  6.40112e+21
-7.65032  6.48825e+21
-7.55645  6.58992e+21
-7.46258  6.72158e+21
-7.36872  6.89859e+21
-7.27485  7.13183e+21
-7.18098  7.42603e+21
-7.08712  7.77947e+21
-6.99325  8.1813e+21
-6.89938  8.61314e+21
-6.80551  9.04953e+21
-6.71165  9.46212e+21
-6.61778  9.82273e+21
-6.52391  1.01089e+22
-6.43005  1.03084e+22
-6.33618  1.04204e+22
-6.24231  1.04571e+22
-6.14845  1.04404e+22
-6.05458  1.03983e+22
-5.96071  1.03605e+22
-5.86684  1.03523e+22
-5.77298  1.03921e+22
-5.67911  1.04903e+22
-5.58524  1.06467e+22
-5.49138  1.08529e+22
-5.39751  1.10934e+22
-5.30364  1.13476e+22
-5.20978  1.15925e+22
-5.11591  1.18082e+22
-5.02204  1.19787e+22
-4.92817  1.2094e+22
-4.83431  1.2153e+22
-4.74044  1.21608e+22
-4.64657  1.21273e+22
-4.55271  1.20657e+22
-4.45884  1.19887e+22
-4.36497  1.19078e+22
-4.27111  1.18321e+22
-4.17724  1.17675e+22
-4.08337  1.17175e+22
-3.9895  1.16831e+22
-3.89564  1.16633e+22
-3.80177  1.16556e+22
-3.7079  1.16565e+22
-3.61404  1.16623e+22
-3.52017  1.16689e+22
-3.4263  1.16715e+22
-3.33244  1.1665e+22
-3.23857  1.16436e+22
-3.1447  1.16019e+22
-3.05084  1.15354e+22
-2.95697  1.14418e+22
-2.8631  1.13237e+22
-2.76923  1.1186e+22
-2.67537  1.10381e+22
-2.5815  1.08912e+22
-2.48763  1.07573e+22
-2.39377  1.06474e+22
-2.2999  1.05707e+22
-2.20603  1.05332e+22
-2.11217  1.05369e+22
-2.0183  1.05791e+22
-1.92443  1.06529e+22
-1.83056  1.07473e+22
-1.7367  1.08491e+22
-1.64283  1.09444e+22
-1.54896  1.10213e+22
-1.4551  1.10717e+22
-1.36123  1.10917e+22
-1.26736  1.10823e+22
-1.17349  1.10473e+22
-1.07963  1.09929e+22
-0.985761  1.09252e+22
-0.891894  1.08506e+22
-0.798027  1.07743e+22
-0.70416  1.07011e+22
-0.610293  1.06357e+22
-0.516426  1.05815e+22
-0.422559  1.05405e+22
-0.328692  1.05131e+22
-0.234825  1.04974e+22
-0.140958  1.04901e+22
-0.047091  1.04879e+22
0.046776  1.04883e+22
0.140643  1.04916e+22
0.23451  1.04993e+22
0.328377  1.05148e+22
0.422244  1.05411e+22
0.516111  1.058e+22
0.609978  1.06316e+22
0.703845  1.06941e+22
0.797712  1.07644e+22
0.891579  1.08386e+22
0.985446  1.0912e+22
1.07931  1.09791e+22
1.17318  1.10336e+22
1.26705  1.10686e+22
1.36091  1.1078e+22
1.45478  1.1057e+22
1.54865  1.10045e+22
1.64251  1.09245e+22
1.73638  1.0825e+22
1.83025  1.07186e+22
1.92412  1.0619e+22
2.01798  1.05403e+22
2.11185  1.04937e+22
2.20572  1.04869e+22
2.29958  1.05222e+22
2.39345  1.05979e+22
2.48732  1.07077e+22
2.58119  1.08422e+22
2.67505  1.09897e+22
2.76892  1.11374e+22
2.86279  1.12734e+22
2.95665  1.1388e+22
3.05052  1.14758e+22
3.14439  1.15352e+22
3.23825  1.15683e+22
3.33212  1.15801e+22
3.42599  1.15773e+22
3.51986  1.1566e+22
3.61372  1.15523e+22
3.70759  1.15409e+22
3.80146  1.15361e+22
3.89532  1.15415e+22
3.98919  1.15601e+22
4.08306  1.15939e+22
4.17692  1.16435e+22
4.27079  1.17074e+22
4.36466  1.17814e+22
4.45852  1.18599e+22
4.55239  1.19337e+22
4.64626  1.19915e+22
4.74013  1.20213e+22
4.83399  1.201e+22
4.92786  1.19484e+22
5.02173  1.18312e+22
5.11559  1.16601e+22
5.20946  1.14446e+22
5.30333  1.12002e+22
5.39719  1.09474e+22
5.49106  1.07082e+22
5.58493  1.05026e+22
5.6788  1.03463e+22
5.77266  1.02475e+22
5.86653  1.02063e+22
5.9604  1.02128e+22
6.05426  1.02487e+22
6.14813  1.02885e+22
6.242  1.03036e+22
6.33587  1.02661e+22
6.42973  1.01541e+22
6.5236  9.95538e+21
6.61747  9.67104e+21
6.71133  9.31314e+21
6.8052  8.90402e+21
6.89907  8.47175e+21
6.99293  8.04468e+21
7.0868  7.64741e+21
7.18067  7.2985e+21
7.27454  7.00825e+21
7.3684  6.77897e+21
7.46227  6.60542e+21
7.55614  6.47652e+21
7.65  6.37741e+21
7.74387  6.29305e+21
7.83774  6.20885e+21
7.9316  6.11331e+21
8.02547  6.00035e+21
8.11934  5.86794e+21
8.21321  5.71755e+21
8.30707  5.55197e+21
8.40094  5.37493e+21
8.49481  5.18875e+21
8.58867  4.99425e+21
8.68254  4.79147e+21
8.77641  4.57939e+21
8.87027  4.35702e+21
8.96414  4.12501e+21
9.05801  3.88512e+21
9.15187  3.64081e+21
9.24574  3.39763e+21
9.33961  3.1625e+21
9.43348  2.94242e+21
9.52734  2.74387e+21
9.62121  2.5713e+21
9.71508  2.42696e+21
9.80894  2.3088e+21
9.90281  2.21314e+21
9.99668  2.13387e+21
10.0905  2.06371e+21
10.1844  1.99579e+21
10.2783  1.92428e+21
10.3721  1.84533e+21
10.466  1.75648e+21
10.5599  1.657e+21
10.6537  1.54764e+21
10.7476  1.43058e+21
10.8415  1.3087e+21
10.9353  1.18553e+21
11.0292  1.06564e+21
11.1231  9.52612e+20
11.2169  8.49808e+20
11.3108  7.59234e+20
11.4047  6.81202e+20
11.4985  6.15188e+20
11.5924  5.60183e+20
11.6863  5.14851e+20
11.7802  4.78213e+20
11.874  4.49281e+20
11.9679  4.26645e+20
12.0618  4.07908e+20
12.1556  3.90061e+20
12.2495  3.69888e+20
12.3434  3.44854e+20
12.4372  3.14188e+20
12.5311  2.79075e+20
12.625  2.42351e+20
12.7188  2.07371e+20
12.8127  1.77308e+20
12.9066  1.54181e+20
13.0004  1.38694e+20
13.0943  1.30534e+20
13.1882  1.28793e+20
13.282  1.32244e+20
13.3759  1.3954e+20
13.4698  1.49044e+20
13.5636  1.58826e+20
13.6575  1.66769e+20
13.7514  1.70943e+20
13.8452  1.70218e+20
13.9391  1.6462e+20
14.033  1.55278e+20
14.1268  1.44145e+20
14.2207  1.33334e+20
14.3146  1.24435e+20
14.4084  1.18459e+20
14.5023  1.1576e+20
14.5962  1.16531e+20
14.69  1.20918e+20
14.7839  1.29273e+20
14.8778  1.41725e+20
14.9716  1.57907e+20
15.0655  1.7661e+20
15.1594  1.9576e+20
15.2532  2.12567e+20
15.3471  2.24257e+20
15.441  2.28383e+20
15.5348  2.23527e+20
15.6287  2.09316e+20
15.7226  1.86835e+20
15.8164  1.58267e+20
15.9103  1.27064e+20
16.0042  9.70018e+19
16.098  7.15715e+19
16.1919  5.2901e+19
16.2858  4.15164e+19
16.3796  3.62431e+19
16.4735  3.49403e+19
16.5674  3.54078e+19
16.6612  3.62773e+19
16.7551  3.7163e+19
16.849  3.83037e+19
16.9428  3.99195e+19
17.0367  4.15999e+19
17.1306  4.24091e+19
17.2244  4.12996e+19
17.3183  3.79233e+19
17.4122  3.2956e+19
17.506  2.79959e+19
17.5999  2.49617e+19
17.6938  2.51821e+19
17.7876  2.8826e+19
17.8815  3.4846e+19
17.9754  4.14469e+19
18.0692  4.69359e+19
18.1631  5.03341e+19
18.257  5.17453e+19
18.3508  5.22081e+19
18.4447  5.31218e+19
18.5386  5.57123e+19
18.6324  6.0475e+19
18.7263  6.70106e+19
18.8202  7.41253e+19
18.914  8.0222e+19
19.0079  8.37796e+19
19.1018  8.37934e+19
19.1956  8.00154e+19
19.2895  7.291e+19
19.3834  6.35915e+19
19.4772  5.33127e+19
19.5711  4.34124e+19
19.665  3.48321e+19
19.7588  2.80476e+19
19.8527  2.32194e+19
19.9466  2.02611e+19
20.0404  1.90673e+19
20.1343  1.96509e+19
20.2282  2.18408e+19
20.322  2.53949e+19
20.4159  2.97498e+19
20.5098  3.40191e+19
20.6036  3.72551e+19
20.6975  3.86874e+19
20.7914  3.80109e+19
20.8853  3.55368e+19
20.9791  3.19644e+19
21.073  2.823e+19
21.1669  2.5232e+19
21.2607  2.36038e+19
21.3546  2.38357e+19
21.4485  2.61388e+19
21.5423  3.05472e+19
21.6362  3.67385e+19
21.7301  4.3941e+19
21.8239  5.09704e+19
21.9178  5.63412e+19
22.0117  5.87084e+19
22.1055  5.72197e+19
22.1994  5.19043e+19
22.2933  4.36078e+19
22.3871  3.37435e+19
22.481  2.39395e+19
22.5749  1.55499e+19
22.6687  9.3711e+18
22.7626  5.5421e+18
22.8565  3.6628e+18
22.9503  2.99943e+18
23.0442  2.82115e+18
23.1381  2.68419e+18
23.2319  2.57939e+18
23.3258  2.87701e+18
23.4197  4.05163e+18
23.5135  6.33903e+18
23.6074  9.45334e+18
23.7013  1.25491e+19
23.7951  1.45411e+19
23.889  1.46556e+19
23.9829  1.27701e+19
24.0767  9.61164e+18
24.1706  6.57042e+18
24.2645  5.06317e+18
24.3583  5.95179e+18
24.4522  9.25319e+18
24.5461  1.41167e+19
24.6399  1.93338e+19
24.7338  2.37593e+19
24.8277  2.68473e+19
24.9215  2.86597e+19
25.0154  2.97023e+19
25.1093  3.06237e+19
25.2031  3.17391e+19
25.297  3.30875e+19
25.3909  3.4325e+19
25.4847  3.49735e+19
25.5786  3.45897e+19
25.6725  3.30563e+19
25.7663  3.03883e+19
25.8602  2.70218e+19
25.9541  2.33008e+19
26.0479  1.97935e+19
26.1418  1.68502e+19
26.2357  1.47665e+19
26.3295  1.3664e+19
26.4234  1.35032e+19
26.5173  1.41134e+19
26.6111  1.52524e+19
26.705  1.65854e+19
26.7989  1.77781e+19
26.8927  1.85211e+19
26.9866  1.85409e+19
27.0805  1.77417e+19
27.1743  1.62007e+19
27.2682  1.42375e+19
27.3621  1.23696e+19
27.4559  1.11384e+19
27.5498  1.09963e+19
27.6437  1.20585e+19
27.7375  1.40983e+19
27.8314  1.66016e+19
27.9253  1.89646e+19
28.0191  2.07121e+19
28.113  2.1649e+19
28.2069  2.18121e+19
28.3007  2.13294e+19
28.3946  2.02808e+19
28.4885  1.86805e+19
28.5823  1.66628e+19
28.6762  1.46795e+19
28.7701  1.357e+19
28.8639  1.44162e+19
28.9578  1.79637e+19
29.0517  2.41769e+19
29.1455  3.18861e+19
29.2394  3.9082e+19
29.3333  4.35914e+19
29.4271  4.38646e+19
29.521  3.97529e+19
29.6149  3.2395e+19
29.7087  2.38681e+19
29.8026  1.6342e+19
29.8965  1.14103e+19
29.9903  9.77317e+18
30.0842  1.12553e+19
30.1781  1.51396e+19
30.272  2.04854e+19
30.3658  2.62447e+19
30.4597  3.14921e+19
30.5536  3.54607e+19
30.6474  3.76527e+19
30.7413  3.81388e+19
30.8352  3.74472e+19
30.929  3.64237e+19
31.0229  3.57385e+19
31.1168  3.57379e+19
31.2106  3.61471e+19
31.3045  3.63509e+19
31.3984  3.57633e+19
31.4922  3.41921e+19
31.5861  3.1869e+19
31.68  2.93707e+19
31.7738  2.72447e+19
31.8677  2.57469e+19
31.9616  2.47338e+19
32.0554  2.38128e+19
32.1493  2.25521e+19
32.2432  2.0734e+19
32.337  1.84153e+19
32.4309  1.58776e+19
32.5248  1.34846e+19
32.6186  1.15151e+19
32.7125  1.01716e+19
32.8064  9.53925e+18
32.9002  9.70446e+18
32.9941  1.07478e+19
33.088  1.27493e+19
33.1818  1.56067e+19
33.2757  1.90015e+19
33.3696  2.22228e+19
33.4634  2.4405e+19
33.5573  2.47201e+19
33.6512  2.27773e+19
33.745  1.88124e+19
33.8389  1.37156e+19
33.9328  8.80614e+18
34.0266  5.31964e+18
34.1205  4.02383e+18
34.2144  4.89928e+18
34.3082  7.239e+18
34.4021  9.88199e+18
34.496  1.17447e+19
34.5898  1.2155e+19
34.6837  1.10574e+19
34.7776  8.99759e+18
34.8714  6.85291e+18
34.9653  5.48245e+18
35.0592  5.44486e+18
35.153  6.77951e+18
35.2469  9.12456e+18
35.3408  1.18417e+19
35.4346  1.43152e+19
35.5285  1.61166e+19
35.6224  1.71321e+19
35.7162  1.74842e+19
35.8101  1.73572e+19
35.904  1.69387e+19
35.9978  1.62876e+19
36.0917  1.55156e+19
36.1856  1.47195e+19
36.2794  1.40832e+19
36.3733  1.37596e+19
36.4672  1.38632e+19
36.561  1.43417e+19
36.6549  1.50696e+19
36.7488  1.58724e+19
36.8426  1.66465e+19
36.9365  1.73435e+19
37.0304  1.7869e+19
37.1242  1.81022e+19
37.2181  1.78054e+19
37.312  1.68274e+19
37.4058  1.51161e+19
37.4997  1.28806e+19
37.5936  1.05286e+19
37.6874  8.57095e+18
37.7813  7.46781e+18
37.8752  7.54019e+18
37.969  8.88581e+18
38.0629  1.14027e+19
38.1568  1.47726e+19
38.2506  1.83327e+19
38.3445  2.12177e+19
38.4384  2.23654e+19
38.5322  2.10053e+19
38.6261  1.70423e+19
38.72  1.14206e+19
38.8138  6.12563e+18
38.9077  3.55022e+18
39.0016  5.62825e+18
39.0954  1.28968e+19
39.1893  2.40391e+19
39.2832  3.62051e+19
39.377  4.60079e+19
39.4709  5.0884e+19
39.5648  5.00074e+19
39.6586  4.45811e+19
39.7525  3.70839e+19
39.8464  3.01182e+19
39.9403  2.53553e+19
40.0341  2.29129e+19
40.128  2.18887e+19
40.2219  2.11615e+19
40.3157  2.02886e+19
40.4096  1.98009e+19
40.5035  2.09466e+19
40.5973  2.47296e+19
40.6912  3.13113e+19
40.7851  3.94587e+19
40.8789  4.72227e+19
40.9728  5.24759e+19
41.0667  5.38399e+19
41.1605  5.09652e+19
41.2544  4.46755e+19
41.3483  3.63715e+19
41.4421  2.76189e+19
41.536  1.97176e+19
41.6299  1.36031e+19
41.7237  9.73158e+18
41.8176  8.08543e+18
41.9115  8.1699e+18
42.0053  9.18255e+18
42.0992  1.02575e+19
42.1931  1.08932e+19
42.2869  1.11839e+19
42.3808  1.17948e+19
42.4747  1.35816e+19
42.5685  1.69924e+19
